# A sample (mobile) ecg recording
# with sampling rate 128Hz and arbitrary
# units in linear relation to voltage.
5265.129
5270.638
5288.093
5292.258
5286.823
5278.028
5276.758
5286.505
5285.186
5277.564
5233.309
5092.666
4944.412
5133.036
6000.387
6112.581
5830.256
5565.093
5408.35
5310.618
5288.594
5278.663
5271.004
5267.78
5256.518
5278.236
5283.012
5277.613
5275.866
5288.899
5280.605
5304.229
5306.624
5315.626
5317.531
5333.594
5357.707
5369.458
5406.041
5412.332
5434.001
5457.918
5452.08
5459.775
5473.627
5461.058
5428.993
5397.515
5352.161
5326.827
5297.572
5299.026
5283.012
5287.348
5288.68
5295.923
5296.229
5308.333
5323.541
5329.258
5314.453
5327.499
5323.957
5308.602
5322.381
5325.862
5323.712
5324.689
5315.87
5322.808
5326.766
5329.563
5336.196
5319.84
5312.78
5317.519
5315.675
5343.452
5340.3
5362.507
5354.677
5339.47
5350.964
5366.965
5363.13
5347.006
5337.723
5348.105
5349.498
5364.583
5370.875
5346.896
5315.064
5174.237
4994.103
5207.902
6090.753
6181.486
5917.263
5669.714
5479.05
5405.895
5377.312
5377.703
5341.974
5361.432
5356.204
5377.348
5371.778
5371.155
5375.528
5384.372
5376.102
5403.586
5407.08
5410.036
5413.688
5430.361
5427.698
5463.049
5489.971
5503.48
5516.392
5553.953
5557.067
5569.576
5570.504
5561.184
5538.22
5492.182
5467.69
5443.37
5418.269
5409.901
5398.321
5386.742
5394.718
5409.12
5412.735
5415.96
5417.975
5426.062
5427.344
5429.274
5433.073
5417.768
5433.33
5441.196
5422.8
5432.694
5423.411
5423.912
5399.396
5420.614
5424.62
5413.199
5422.043
5436.676
5411.123
5441.538
5434.368
5436.212
5441.843
5441.917
5441.868
5435.015
5450.418
5457.711
5457.369
5450.162
5425.671
5451.738
5456.221
5448.452
5428.957
5251.864
5120.051
5085.397
5991.58
6358.799
6170.761
5828.717
5622.442
5503.224
5461.668
5456.538
5433.073
5424.975
5430.068
5434.038
5454.229
5442.43
5451.713
5457.32
5446.766
5460.215
5467.238
5473.883
5489.189
5467.727
5506.607
5500.573
5526.628
5571.848
5570.492
5583.317
5585.455
5596.167
5612.426
5601.811
5588.021
5554.111
5514.706
5495.504
5476.815
5484.144
5474.995
5455.451
5453.375
5459.531
5472.992
5484.816
5476.974
5496.127
5476.437
5465.919
5491.119
5495.406
5487.173
5489.226
5488.822
5495.553
5508.66
5506.045
5506.791
5499.669
5506.937
5504.201
5501.477
5508.098
5494.844
5500.316
5499.327
5499.205
5510.015
5518.847
5535.936
5528.692
5526.298
5532.748
5525.846
5517.381
5525.431
5520.459
5520.227
5520.74
5521.522
5521.021
5512.385
5514.987
5405.565
5275.304
5031.053
5751.835
6521.588
6542.427
6041.832
5755.061
5582.756
5525.956
5507.133
5494.099
5489.543
5481.591
5475.215
5489.165
5480.357
5488.407
5486.037
5468.765
5468.998
5478.953
5478.33
5489.934
5483.436
5489.226
5501.16
5523.171
5530.378
5549.677
5580.496
5582.279
5577.027
5592.198
5595.472
5583.525
5551.668
5509.563
5517.369
5499.327
5488.944
5483.069
5471.147
5478.183
5476.424
5464.185
5475.74
5461.204
5451.958
5464.905
5454.278
5465.113
5473.712
5480.174
5465.076
5471.868
5473.993
5472.149
5479.405
5485.708
5468.191
5481.017
5479.991
5474.36
5485.316
5491.412
5489.201
5491.583
5479.502
5481.554
5499.962
5498.912
5487.906
5473.59
5506.546
5497.52
5493.146
5495.455
5484.608
5488.163
5490.068
5495.138
5478.195
5468.753
5482.153
5496.53
5487.809
5511.127
5499.034
5501.306
5503.981
5479.197
5482.886
5486.257
5494.686
5487.247
5474.555
5486.098
5482.751
5473.444
5461.216
5292.759
5091.444
5179.722
6193.078
6662.281
6376.694
5838.33
5588.606
5489.458
5456.941
5441.599
5451.151
5447.475
5431.913
5432.316
5431.204
5435.638
5408.545
5416.241
5429.335
5433.134
5423.326
5424.999
5430.765
5430.715
5432.792
5448.098
5452.373
5474.25
5480.956
5502.027
5513.265
5514.181
5509.93
5508.305
5511.53
5488.126
5460.605
5455.06
5438.545
5456.331
5449.576
5444.25
5448.782
5432.975
5427.002
5432.694
5411.953
5427.173
5420.858
5422.837
5430.337
5436.664
5446.045
5435.321
5420.565
5435.443
5448.244
5448.525
5455.182
5452.006
5442.002
5437.312
5458.505
5445.02
5451.481
5460.862
5451.164
5461.656
5453.118
5456.843
5456.123
5437.495
5450.772
5451.872
5447.633
5456.672
5452.116
5456.587
5446.778
5438.228
5451.31
5456.929
5444.262
5446.852
5457.649
5448.794
5433.183
5427.173
5459.36
5460.544
5463.904
5462.071
5465.65
5462.267
5453.704
5447.438
5454.681
5457.332
5456.331
5450.626
5455.512
5446.351
5439.547
5437.25
5276.403
5092.446
5174.237
6099.328
6549.231
6292.862
5784.022
5554.966
5485.573
5461.485
5443.053
5427.588
5434.71
5417.292
5422.458
5425.011
5421.982
5416.216
5422.189
5421.396
5428.603
5406.127
5400.386
5404.124
5412.943
5416.192
5428.798
5431.839
5462.67
5460.838
5472.356
5492.584
5489.873
5495.736
5479.441
5482.202
5475.398
5459.909
5453.948
5442.637
5441.697
5420.736
5423.729
5434.576
5428.187
5426.208
5420.37
5407.482
5420.504
5424.071
5425.243
5436.518
5436.53
5440.769
5433.098
5453.973
5459.445
5440.549
5464.233
5466.493
5457.161
5461.876
5463.782
5470.671
5471.318
5464.698
5477.426
5463.818
5477.804
5478.574
5478.488
5466.848
5476.338
5484.4
5493.354
5472.906
5491.021
5495.614
5482.935
5481.86
5500.255
5479.282
5481.31
5497.8
5499.73
5486.355
5496.176
5501.929
5517.857
5515.537
5519.799
5527.043
5509.527
5508.11
5531.428
5516.709
5504.543
5520.154
5512.739
5509.343
5516.893
5491.131
5364.217
5192.315
5189.836
6077.414
6475.647
6251.563
5867.023
5643.757
5544.339
5511.212
5501.807
5486.465
5487.967
5494.686
5503.969
5496.713
5504.311
5499.547
5488.542
5504.726
5493.721
5513.814
5513.814
5526.75
5518.81
5531.233
5562.454
5564.287
5581.754
5588.021
5596.155
5613.366
5610.056
5609.958
5611.106
5612.854
5592.845
5562.528
5552.548
5537.426
5507.609
5519.433
5513.094
5516.611
5522.707
5508.879
5521.302
5520.96
5522.719
5532.845
5532.186
5533.773
5548.346
5560.158
5553.305
5556.029
5556.103
5577.918
5569.258
5573.228
5559.56
5570.113
5575.524
5575.256
5569.832
5591.257
5578.395
5588.594
5580.142
5586.787
5589.352
5577.344
5601.273
5593.7
5571.579
5595.96
5578.786
5579.531
5584.856
5605.646
5611.668
5615.003
5612.646
5617.129
5592.577
5596.424
5612.096
5619.474
5598.77
5599.686
5617.984
5613.599
5603.558
5595.716
5512.361
5395.28
5191.888
5695.585
6441.946
6345.839
6044.482
5831.587
5679.975
5630.309
5596.864
5602.202
5590.097
5596.424
5592.638
5591.074
5589.779
5602.385
5600.15
5618.594
5615.956
5623.151
5631.115
5636.954
5637.32
5639.763
5661.652
5681.074
5709.474
5724.499
5740.402
5746.95
5762.976
5780.187
5767.3
5767.373
5753.497
5707.336
5687.353
5649.352
5625.484
5600.736
5614.844
5589.853
5613.122
5594.299
5607.613
5641.51
5621.771
5617.947
5634.535
5630.345
5641.363
5632.08
5634.45
5635.244
5633.692
5611.106
5650.5
5628.073
5653.31
5642.585
5628.586
5640.679
5633.888
5653.798
5643.195
5642.951
5639.934
5639.055
5636.123
5631.713
5631.334
5657.169
5660.028
5665.219
5670.374
5655.435
5660.125
5661.555
5656.437
5672.927
5664.401
5664.962
5680.463
5677.239
5675.431
5684.666
5608.883
5479.038
5279.628
5652.564
6499.284
6536.955
6230.847
5963.46
5786.624
5716.498
5690.541
5693.644
5699.189
5685.484
5684.983
5672.426
5691.139
5686.522
5703.391
5708.961
5703.525
5708.937
5710.928
5726.624
5740.329
5739.584
5761.07
5772.101
5793.55
5823.159
5822.792
5854.319
5862.895
5856.567
5865.167
5861.099
5841.298
5829.157
5802.711
5771.38
5744.409
5733.134
5725.207
5728.2
5726.221
5727.943
5717.292
5741.612
5741.086
5738.827
5749.075
5735.675
5754.401
5763.037
5747.414
5752.959
5744.873
5770.17
5766.005
5754.413
5769.34
5776.571
5761.73
5770.659
5765.162
5761.119
5763.391
5768.289
5778.208
5768.57
5767.532
5762.133
5769.34
5761.681
5763.208
5781.604
5802.833
5801.502
5803.896
5794.601
5804.482
5790.655
5789.629
5799.914
5797.74
5793.245
5792.108
5784.242
5787.479
5785.72
5761.058
5593.627
5406.945
5651.6
6607.814
6888.991
6551.185
6102.956
5909.47
5824.014
5801.905
5784.633
5778.513
5784.547
5774.849
5756.196
5785.439
5788.872
5781.665
5787.43
5767.63
5766.274
5762.279
5757.479
5775.851
5771.575
5785.427
5800.867
5816.025
5833.64
5856.616
5860.366
5872.837
5880.289
5884.234
5874.108
5870.529
5840.468
5823.135
5803.371
5804.348
5784.01
5795.797
5781.311
5769.963
5796.885
5780.407
5771.257
5789.274
5780.919
5782.043
5777.658
5793.452
5795.736
5786.368
5808.562
5803.615
5819.299
5807.817
5813.875
5819.971
5827.141
5819.006
5821.449
5809.014
5808.721
5811.42
5821.901
5816.612
5817.357
5822.866
5819.604
5806.596
5811.836
5802.895
5818.053
5827.019
5810.407
5810.614
5802.137
5806.889
5821.327
5832.797
5830.745
5837.438
5840.712
5833.017
5816.16
5816.587
5825.224
5824.625
5832.052
5836.657
5843.069
5828.436
5816.441
5777.096
5631.09
5402.01
5886.982
6749.093
6995.86
6483.563
6094.222
5911.021
5859.975
5839.503
5830.854
5825.419
5842.74
5814.279
5836.95
5819.152
5817.04
5810.309
5828.595
5819.018
5801.905
5808.232
5785.292
5792.377
5809.613
5825.846
5828.998
5841.176
5850.838
5855.443
5878.334
5886.909
5870.688
5878.664
5878.786
5884.319
5849.03
5830.61
5835.02
5826.689
5843.363
5829.535
5821.559
5815.012
5824.491
5827.825
5820.973
5825.993
5822.78
5820.814
5815.61
5824.845
5842.74
5843.949
5836.925
5831.025
5849.678
5861.709
5864.702
5838.843
5855.089
5865.765
5852.731
5862.455
5858.155
5830.073
5862.271
5850.252
5863.774
5850.814
5844.242
5859.951
5846.478
5852.121
5838.77
5836.913
5836.803
5831.307
5856.616
5865.215
5858.802
5858.802
5862.186
5859.047
5852.5
5865.105
5877.015
5869.258
5851.29
5868.013
5867.536
5856.347
5853.11
5834.922
5685.068
5527.397
5596.412
6520.367
6856.169
6600.216
6192.113
5977.667
5898.367
5866.95
5844.401
5839.295
5827.324
5831.612
5827.703
5823.44
5838.0
5813.167
5830.598
5808.013
5816.502
5811.213
5798.998
5807.536
5797.385
5821.522
5831.05
5838.538
5848.261
5863.798
5879.996
5883.403
5874.535
5870.358
5852.28
5823.599
5819.543
5790.386
5772.198
5761.608
5749.93
5753.094
5741.013
5747.756
5736.09
5716.534
5732.06
5718.831
5727.027
5728.102
5709.572
5722.227
5735.517
5719.869
5729.788
5721.616
5711.929
5709.291
5698.114
5696.123
5695.28
5694.254
5674.466
5698.09
5706.726
5686.131
5683.029
5694.144
5677.214
5650.952
5673.012
5645.565
5657.365
5663.973
5662.153
5657.035
5662.532
5646.811
5642.841
5653.2
5646.567
5623.114
5616.896
5615.235
5592.32
5619.669
5601.481
5588.448
5482.8
5345.101
5179.111
5739.328
6368.192
6291.751
5982.003
5766.433
5609.384
5567.841
5559.987
5521.571
5512.605
5516.624
5497.202
5492.047
5472.76
5480.87
5486.343
5467.544
5463.11
5476.913
5470.598
5466.75
5464.49
5480.064
5493.439
5485.194
5504.983
5515.366
5539.209
5545.158
5551.876
5543.313
5538.745
5527.849
5497.776
5423.68
5411.025
5380.891
5363.301
5331.53
5298.269
5325.337
5333.105
5333.667
5327.597
5329.917
5329.417
5320.365
5324.628
5317.006
5309.396
5322.051
5314.991
5303.802
5291.318
5279.176
5296.753
5289.925
5283.891
5286.457
5266.033
5266.852
5270.711
5237.829
5237.291
5255.308
5259.632
5261.697
5256.126
5251.155
5247.576
5226.334
5243.997
5251.57
5234.042
5223.122
5225.895
5228.692
5215.133
5230.121
5222.56
5194.099
5035.389
4881.077
4935.006
5891.685
6160.427
5912.756
5543.533
5333.826
5242.299
5198.838
5184.388
5171.293
5165.296
5163.451
5164.245
5139.864
5157.552
5163.757
5158.81
5146.949
5156.757
5160.043
5156.147
5153.924
5148.586
5148.696
5179.709
5204.64
5207.083
5217.894
5204.494
5241.762
5251.326
5237.267
5223.354
5187.283
5166.811
5148.0
5130.141
5091.004
5059.367
5072.303
5067.722
5055.544
5042.767
5025.751
5032.897
5031.163
5021.806
5021.928
5030.613
5035.817
5030.552
5021.146
5009.029
5002.14
5001.31
5019.424
5008.138
5027.144
5022.771
5011.814
5013.549
4990.988
5011.985
5015.601
5004.668
4990.67
4989.852
5008.016
5006.146
4996.484
5002.824
5029.379
5021.379
5027.156
5006.342
5014.233
5014.05
5023.199
5026.338
5019.144
5033.068
5022.869
5010.8
5030.552
5021.085
4889.958
4725.531
4628.605
5591.172
6178.237
6023.521
5497.312
5218.517
5095.878
5083.517
5060.271
5068.321
5059.697
5050.316
5059.575
5041.692
5064.938
5056.998
5062.617
5057.059
5068.968
5060.552
5065.585
5068.749
5088.317
5077.617
5099.445
5109.021
5139.559
5143.468
5157.063
5166.762
5167.104
5175.63
5186.257
5172.588
5133.378
5129.176
5125.658
5122.507
5111.33
5113.846
5121.31
5114.823
5118.366
5111.464
5116.656
5115.361
5120.674
5132.486
5127.344
5122.641
5132.413
5135.479
5125.353
5146.741
5155.512
5141.721
5142.234
5154.302
5153.96
5155.402
5164.966
5161.607
5157.502
5163.574
5162.523
5169.375
5174.946
5162.242
5173.651
5173.846
5177.291
5161.851
5161.814
5160.569
5166.811
5174.372
5196.139
5198.973
5203.907
5197.824
5197.702
5191.863
5209.979
5201.855
5209.27
5194.856
5215.524
5209.673
5217.857
5217.491
5210.149
5130.349
4998.011
4763.862
5402.987
6189.841
6302.512
5755.781
5453.631
5279.812
5251.876
5230.096
5218.797
5215.805
5219.628
5210.223
5205.935
5201.306
5215.28
5223.378
5212.458
5206.875
5219.079
5207.914
5202.173
5220.874
5216.342
5222.132
5232.723
5253.732
5264.433
5284.514
5286.163
5285.87
5291.391
5305.915
5291.587
5265.435
5229.986
5242.788
5241.896
5227.788
5230.597
5230.316
5222.267
5225.907
5213.142
5215.121
5217.307
5212.996
5224.6
5232.698
5243.716
5242.226
5224.673
5232.209
5248.553
5249.934
5254.673
5243.264
5252.743
5267.535
5255.064
5262.723
5251.314
5235.935
5264.152
5260.866
5268.366
5258.667
5270.797
5274.205
5278.077
5259.938
5275.329
5280.557
5290.28
5275.353
5283.854
5281.864
5245.548
5271.041
5270.259
5263.492
5280.837
5281.949
5287.067
5285.479
5291.66
5287.678
5282.829
5292.979
5275.426
5298.586
5315.394
5291.868
5286.872
5298.586
5287.714
5244.889
5070.275
4890.287
5253.806
6087.919
6310.049
5896.229
5543.24
5375.308
5306.709
5291.892
5279.005
5272.629
5291.575
5291.587
5283.464
5278.309
5281.045
5272.507
5266.839
5286.627
5287.373
5275.842
5298.134
5288.558
5306.538
5325.459
5320.805
5339.628
5353.798
5374.124
5367.808
5385.593
5379.999
5375.907
5386.448
5363.777
5348.02
5333.411
5309.237
5293.712
5314.465
5298.17
5311.827
5308.565
5306.843
5307.112
5323.773
5311.583
5320.817
5321.721
5326.192
5335.292
5331.872
5352.979
5337.051
5351.147
5361.188
5359.038
5374.246
5365.341
5367.1
5378.105
5375.821
5351.672
5383.553
5385.825
5387.548
5374.319
5392.715
5385.508
5369.909
5388.098
5389.795
5366.685
5382.43
5373.378
5380.512
5391.139
5393.826
5413.016
5411.843
5408.57
5406.139
5394.657
5409.193
5393.838
5403.549
5383.053
5386.913
5411.428
5402.572
5393.545
5283.403
5153.594
5010.507
5627.389
6208.078
6117.956
5797.752
5607.186
5466.151
5424.877
5411.343
5399.934
5370.972
5409.327
5411.453
5419.148
5412.723
5404.6
5404.246
5411.746
5425.06
5429.555
5428.603
5433.5
5437.287
5450.602
5472.051
5479.209
5510.932
5515.854
5544.694
5560.964
5545.72
5554.966
5563.199
5559.73
5532.882
5496.115
5462.45
5440.744
5423.509
5410.524
5405.052
5395.451
5408.79
5413.419
5424.718
5417.67
5406.09
5433.94
5433.806
5441.416
5423.558
5430.435
5451.603
5424.156
5437.385
5451.811
5433.965
5439.168
5452.739
5430.337
5424.51
5428.016
5426.428
5430.984
5437.629
5417.963
5423.411
5454.608
5457.723
5458.211
5449.429
5461.192
5455.036
5459.14
5458.395
5455.426
5455.781
5441.575
5465.479
5459.641
5464.099
5458.163
5408.276
5270.381
5083.48
5270.345
6182.317
6270.631
6000.436
5744.812
5569.917
5482.642
5449.063
5445.777
5430.068
5422.385
5423.509
5428.199
5450.284
5433.794
5428.883
5446.559
5428.028
5422.336
5441.746
5455.952
5472.466
5458.248
5479.808
5502.442
5528.24
5559.376
5563.407
5576.99
5566.461
5580.154
5579.714
5573.362
5546.379
5530.182
5494.856
5464.832
5444.738
5427.686
5420.431
5406.823
5420.687
5429.409
5430.765
5441.318
5437.25
5441.66
5434.942
5450.748
5454.669
5446.742
5439.865
5436.762
5433.427
5445.789
5443.248
5436.334
5436.481
5436.457
5434.343
5432.877
5416.351
5412.87
5427.931
5421.383
5437.825
5440.097
5457.955
5448.195
5444.384
5434.539
5436.762
5438.863
5437.764
5453.497
5452.092
5439.413
5441.331
5436.603
5428.187
5408.765
5227.47
5050.939
5276.025
6241.682
6547.912
6174.218
5754.73
5533.725
5441.697
5435.149
5415.313
5429.531
5415.838
5400.508
5407.25
5402.389
5406.188
5403.623
5405.895
5402.401
5405.479
5397.771
5402.34
5407.299
5416.876
5424.132
5417.804
5437.52
5457.222
5478.598
5490.728
5485.488
5499.621
5499.571
5497.568
5479.49
5451.005
5431.644
5420.809
5411.062
5415.337
5405.931
5407.092
5407.605
5399.213
5413.737
5388.513
5396.624
5403.464
5407.482
5411.269
5408.313
5416.607
5409.632
5409.632
5425.61
5417.353
5424.706
5443.505
5441.501
5430.044
5436.86
5446.436
5447.792
5436.029
5447.877
5450.04
5447.096
5429.567
5438.387
5434.93
5443.639
5443.896
5462.108
5461.693
5458.603
5467.874
5470.634
5468.619
5470.476
5466.09
5475.081
5477.792
5453.277
5456.123
5469.669
5476.51
5452.837
5319.217
5149.441
5085.471
6005.896
6587.195
6454.54
5880.386
5614.515
5519.274
5479.355
5471.526
5462.218
5450.37
5444.188
5454.303
5429.079
5440.231
5436.42
5445.801
5454.718
5441.062
5429.299
5424.816
5428.59
5424.718
5422.764
5445.251
5465.052
5458.407
5487.674
5489.763
5510.357
5495.492
5488.883
5510.663
5477.243
5455.854
5462.23
5436.005
5445.178
5423.582
5438.973
5439.999
5433.831
5442.686
5431.155
5432.719
5433.806
5432.462
5429.909
5443.517
5427.356
5437.849
5437.947
5446.998
5444.946
5446.265
5468.729
5443.712
5443.847
5468.069
5470.341
5452.727
5462.914
5463.745
5469.315
5476.656
5471.306
5468.826
5443.712
5482.055
5485.231
5474.274
5480.26
5476.803
5477.963
5472.637
5465.394
5470.097
5448.537
5469.828
5479.429
5469.205
5485.048
5498.961
5490.813
5493.965
5471.489
5486.782
5476.729
5484.278
5503.333
5496.103
5496.994
5481.603
5484.596
5449.075
5274.425
5061.48
5493.452
6324.67
6556.658
6108.929
5746.938
5552.34
5499.278
5493.537
5484.779
5476.314
5470.17
5468.154
5471.917
5478.623
5473.187
5465.895
5456.392
5448.745
5464.856
5450.541
5455.817
5452.751
5458.065
5476.986
5471.489
5490.532
5503.578
5523.22
5538.916
5541.799
5551.571
5543.521
5531.514
5524.759
5495.064
5481.164
5465.101
5447.646
5468.729
5460.862
5436.054
5480.272
5453.277
5464.734
5447.902
5456.758
5463.61
5465.932
5461.729
5443.309
5463.208
5480.492
5470.61
5466.86
5490.716
5499.376
5502.857
5496.665
5491.449
5491.729
5487.662
5478.488
5490.716
5519.177
5512.703
5509.844
5503.224
5514.229
5503.028
5503.566
5522.414
5510.443
5516.917
5520.093
5511.958
5509.625
5505.679
5513.032
5511.884
5512.605
5505.984
5506.62
5517.821
5531.501
5529.425
5542.568
5535.19
5544.132
5535.166
5534.262
5529.535
5533.383
5531.44
5512.031
5540.76
5518.981
5530.756
5535.875
5465.699
5332.629
5135.735
5597.365
6385.293
6432.26
6036.909
5767.263
5614.894
5559.853
5530.194
5531.538
5526.493
5531.44
5533.187
5524.905
5505.203
5526.64
5519.287
5530.451
5544.901
5531.111
5525.101
5528.082
5547.857
5555.773
5567.377
5580.521
5589.547
5585.846
5627.67
5642.731
5645.077
5646.774
5624.116
5626.815
5611.815
5596.424
5577.332
5549.849
5547.308
5528.851
5514.144
5532.564
5541.762
5518.126
5542.41
5544.425
5547.894
5546.331
5556.188
5569.869
5554.588
5566.742
5572.898
5570.724
5566.424
5576.27
5572.288
5581.253
5574.523
5591.832
5577.198
5596.094
5586.408
5584.917
5611.363
5586.738
5607.332
5610.007
5604.694
5610.374
5618.533
5613.977
5639.494
5606.832
5616.445
5609.69
5607.577
5619.059
5599.698
5600.113
5616.506
5623.236
5626.583
5635.573
5645.932
5642.438
5620.366
5635.622
5608.175
5628.305
5644.161
5622.943
5616.298
5621.27
5619.425
5630.187
5495.736
5381.465
5235.043
5842.984
6426.58
6324.817
6026.93
5833.236
5681.893
5634.254
5607.283
5622.259
5627.866
5619.718
5620.756
5609.274
5614.417
5613.134
5615.309
5632.507
5627.768
5617.886
5641.339
5613.525
5655.142
5674.197
5662.544
5684.213
5717.328
5741.539
5725.781
5752.959
5759.812
5763.611
5746.107
5765.517
5737.3
5698.09
5671.693
5637.491
5622.687
5577.992
5596.791
5608.432
5584.344
5602.935
5603.9
5606.941
5600.016
5598.269
5625.63
5617.41
5621.661
5641.938
5624.458
5626.449
5630.541
5633.509
5633.033
5618.094
5636.501
5631.86
5636.734
5639.678
5625.105
5617.849
5637.882
5623.004
5635.072
5625.838
5625.386
5653.798
5642.45
5609.299
5631.494
5618.265
5657.194
5642.878
5653.603
5676.09
5639.042
5638.908
5649.059
5658.428
5658.452
5628.416
5672.035
5636.367
5644.686
5667.906
5645.296
5580.422
5462.584
5282.108
5506.644
6428.596
6509.679
6205.611
5949.401
5772.137
5677.153
5669.396
5657.829
5660.724
5654.018
5635.756
5652.295
5670.068
5653.004
5646.469
5658.024
5685.789
5671.046
5677.422
5707.923
5709.853
5684.983
5701.718
5739.242
5742.088
5789.58
5809.393
5809.478
5832.882
5849.165
5832.235
5836.657
5811.897
5750.407
5752.068
5722.911
5676.506
5691.64
5674.686
5658.782
5648.179
5663.912
5684.727
5700.655
5678.033
5707.263
5705.871
5688.94
5694.193
5686.119
5691.811
5663.961
5670.789
5690.028
5682.894
5681.221
5695.964
5677.227
5679.694
5684.152
5682.345
5694.889
5690.174
5692.031
5667.845
5669.433
5684.739
5654.238
5691.212
5706.457
5693.423
5693.741
5680.451
5639.653
5690.174
5680.219
5735.932
5698.114
5715.117
5649.95
5660.162
5691.176
5674.441
5673.085
5635.146
5436.444
5336.428
5276.245
6245.102
6555.18
6321.69
5988.257
5763.818
5631.469
5607.784
5583.77
5568.159
5591.038
5595.032
5562.186
5591.27
5594.616
5600.455
5565.777
5598.66
5617.666
5609.055
5618.521
5616.896
5643.586
5616.408
5646.017
5673.989
5684.042
5709.975
5710.537
5732.292
5723.973
5714.653
5721.64
5698.603
5648.387
5662.006
5627.756
5600.81
5596.754
5575.451
5575.817
5570.785
5556.249
5562.967
5561.771
5571.701
5585.04
5566.583
5569.014
5584.111
5626.156
5617.116
5559.804
5593.371
5613.501
5571.884
5542.128
5609.971
5627.634
5558.716
5624.922
5707.605
5647.751
5623.945
5634.083
5615.064
5623.676
5611.974
5613.77
5618.216
5628.428
5626.62
5607.186
5623.077
5610.398
5612.683
5617.544
5608.834
5594.8
5590.549
5602.532
5590.341
5606.196
5566.949
5481.493
5393.448
5144.14
5603.766
6479.349
6385.55
6086.258
5831.282
5641.29
5578.407
5558.411
5542.263
5556.005
5553.977
5534.616
5561.294
5565.129
5593.871
5562.735
5542.996
5549.116
5581.95
5602.41
5579.751
5615.797
5588.13
5624.604
5633.008
5655.044
5693.863
5691.665
5694.779
5692.019
5692.911
5701.901
5715.899
5693.534
5693.741
5653.041
5622.992
5646.726
5638.651
5637.65
5618.619
5645.993
5610.691
5626.668
5630.272
5636.661
5648.399
5623.884
5635.183
5676.75
5652.589
5651.331
5657.414
5678.13
5681.086
5664.682
5693.35
5687.597
5663.9
5676.616
5669.568
5693.937
5675.785
5680.781
5667.857
5670.826
5678.705
5696.929
5713.957
5664.046
5713.456
5680.903
5704.857
5710.879
5707.092
5691.872
5678.961
5693.094
5688.928
5699.165
5708.045
5681.294
5559.95
5424.95
5224.013
6010.745
6739.956
6684.353
6213.196
5930.663
5802.503
5719.405
5694.254
5702.011
5682.406
5694.499
5678.692
5681.709
5683.811
5674.661
5697.32
5697.259
5710.183
5710.598
5689.906
5716.229
5714.519
5695.806
5708.827
5722.446
5714.971
5742.063
5739.364
5748.135
5766.689
5773.407
5777.169
5752.434
5762.487
5753.473
5736.799
5721.616
5712.528
5706.555
5696.086
5696.147
5702.695
5707.886
5707.361
5694.755
5690.235
5710.292
5705.492
5699.568
5707.678
5716.754
5702.976
5706.713
5719.087
5737.898
5720.309
5723.362
5702.67
5724.865
5732.145
5739.254
5735.296
5745.899
5724.095
5754.547
5731.314
5755.476
5745.447
5735.651
5735.724
5754.877
5743.896
5759.116
5740.977
5729.165
5738.338
5758.847
5763.232
5778.037
5772.198
5795.395
5772.846
5775.398
5778.257
5784.792
5788.92
5783.924
5788.407
5781.286
5797.507
5779.38
5791.95
5707.08
5556.066
5290.17
5844.071
6762.712
6897.139
6467.586
6103.383
5901.518
5827.031
5806.253
5804.152
5784.792
5791.913
5773.175
5776.645
5782.679
5781.665
5793.733
5784.669
5780.382
5789.836
5801.001
5792.145
5802.564
5799.035
5815.745
5825.236
5834.507
5846.404
5852.634
5873.876
5883.257
5883.184
5885.81
5878.884
5878.151
5875.94
5846.135
5852.67
5835.679
5833.322
5826.433
5834.152
5830.842
5831.355
5840.395
5846.819
5831.648
5832.21
5842.483
5847.235
5855.37
5852.585
5859.254
5862.064
5859.413
5874.804
5872.043
5869.417
5879.348
5869.771
5873.473
5877.907
5876.209
5881.51
5881.266
5885.712
5881.62
5887.043
5892.919
5883.074
5893.713
5888.314
5893.872
5904.719
5898.013
5897.744
5897.109
5884.637
5903.705
5896.828
5899.54
5898.953
5888.558
5887.801
5899.344
5914.43
5920.623
5929.82
5923.823
5929.271
5917.251
5917.593
5904.438
5909.861
5907.259
5904.535
5918.021
5912.048
5905.122
5914.662
5873.424
5693.46
5474.726
5780.688
6800.616
7068.026
6769.333
6265.391
6025.415
5948.998
5903.619
5891.807
5887.324
5877.149
5888.302
5885.199
5880.521
5882.585
5881.131
5876.709
5877.064
5877.223
5879.788
5866.876
5874.108
5887.312
5896.229
5897.67
5896.107
5917.288
5925.459
5936.808
5961.42
5965.806
5948.68
5960.016
5976.58
5958.88
5938.371
5922.821
5925.655
5901.42
5903.436
5905.903
5922.271
5930.932
5913.88
5903.204
5914.209
5911.327
5920.854
5923.994
5919.926
5924.592
5927.842
5929.588
5933.143
5936.966
5944.405
5943.733
5942.377
5941.876
5953.713
5953.505
5952.589
5955.46
5947.63
5953.92
5973.758
5956.889
5953.92
5959.259
5961.958
5971.376
5970.838
5966.93
5971.51
5970.142
5956.413
5980.024
5981.478
5970.179
5978.839
5978.803
5982.98
5961.653
5974.649
5972.414
5967.04
5977.41
5978.143
5995.269
5986.156
5981.026
6009.853
5988.538
5996.612
6000.57
5990.443
5994.731
5996.49
5996.221
5996.93
5986.107
5967.699
5890.696
5724.01
5495.211
6315.985
7161.117
7230.718
6616.376
6240.106
6057.088
6002.952
5962.752
5965.378
5976.066
5957.341
5969.764
5972.781
5952.724
5959.881
5958.648
5946.494
5934.902
5928.049
5962.325
5948.583
5941.486
5949.145
5932.776
5965.0
5950.757
5966.673
5997.528
6005.26
6011.258
6011.82
5993.693
6013.884
5999.519
5978.314
5971.437
5983.664
5974.002
5983.225
5982.443
5981.771
5959.723
5980.415
5975.041
5976.653
5971.681
5967.003
5993.241
5981.282
5978.644
5988.208
5985.179
5989.931
6005.126
6010.22
6014.849
6012.919
6019.21
6031.352
6016.803
6013.078
6019.637
6025.867
6020.089
6027.125
6038.864
6029.971
6024.34
6038.131
6027.882
6031.84
6038.436
6026.49
6040.843
6031.364
6053.778
6054.193
6034.149
6039.78
6051.445
6040.22
6059.031
6043.688
6042.406
6043.64
6028.2
6041.319
6056.722
6060.057
6072.638
6084.34
6069.731
6062.915
6070.745
6076.51
6068.46
6078.941
6074.971
6060.13
6060.594
6066.995
6059.348
5966.771
5823.525
5603.265
6260.273
7093.897
7217.232
6645.351
6315.924
6125.908
6065.871
6079.466
6062.121
6044.874
6042.174
6040.439
6056.307
6059.996
6047.842
6044.581
6032.28
6033.941
6031.266
6044.055
6038.534
6032.878
6041.6
6023.778
6045.24
6072.125
6060.46
6070.513
6087.541
6068.253
6112.288
6111.812
6098.021
6091.12
6070.916
6062.927
6043.408
6041.429
6032.341
6034.882
6030.57
6038.632
6026.05
6039.181
6038.314
6028.457
6029.543
6032.622
6033.782
6039.328
6051.775
6041.478
6054.083
6063.843
6037.41
6058.676
6060.765
6053.204
6057.687
6069.035
6060.753
6071.905
6058.371
6049.821
6063.343
6063.892
6064.137
6059.947
6061.327
6059.629
6056.16
6070.366
6071.93
6070.708
6064.21
6071.808
6056.014
6062.231
6075.484
6073.982
6063.245
6061.156
6068.241
6055.708
6046.828
6026.465
6047.817
6077.023
6082.129
6078.013
6057.992
6054.035
6049.222
6055.831
6067.41
6056.063
6043.396
6040.122
6044.703
6036.824
6029.336
5915.102
5758.701
5593.407
6346.621
7033.397
6997.827
6493.201
6220.672
6076.804
6042.296
5998.835
6001.962
5997.027
5990.065
5987.964
5987.597
5982.833
5979.658
5974.014
5974.881
5972.805
5967.907
5950.965
5955.802
5962.496
5964.487
5977.691
5985.497
5983.2
5999.898
6007.837
6020.553
6036.531
6031.645
6026.063
6009.633
5989.014
5970.13
5942.609
5939.397
5927.39
5916.824
5911.058
5901.812
5902.996
5912.622
5902.129
5906.514
5900.504
5910.508
5909.935
5902.361
5895.936
5905.488
5906.355
5920.891
5916.201
5907.04
5901.225
5900.052
5902.3
5889.547
5900.871
5905.94
5887.764
5890.818
5899.479
5899.906
5892.663
5886.445
5883.636
5871.812
5876.881
5882.402
5865.484
5870.064
5863.92
5849.629
5865.264
5865.936
5873.18
5891.294
5877.907
5882.158
5855.639
5861.746
5860.17
5835.912
5861.355
5867.952
5845.292
5847.04
5827.373
5826.787
5700.826
5565.496
5477.047
6152.072
6696.983
6555.705
6209.69
6020.028
5879.287
5823.501
5823.159
5812.068
5791.84
5802.882
5810.064
5806.864
5806.559
5796.042
5799.572
5794.552
5802.65
5809.698
5800.769
5815.292
5829.376
5845.122
5848.297
5852.67
5884.515
5902.435
5920.842
5917.52
5911.474
5941.767
5936.246
5916.359
5897.646
5854.319
5843.631
5803.249
5783.668
5778.123
5770.854
5770.097
5771.441
5772.076
5785.195
5780.529
5780.834
5780.883
5791.791
5789.641
5796.408
5805.569
5806.559
5806.535
5786.196
5751.652
5751.127
5785.451
5786.392
5787.552
5789.995
5784.657
5802.503
5782.52
5778.562
5781.213
5763.367
5769.547
5780.834
5802.271
5803.566
5779.307
5811.213
5807.268
5802.809
5808.062
5789.702
5778.807
5785.879
5780.358
5819.263
5809.283
5794.674
5781.262
5661.42
5538.378
5371.754
5980.281
6673.604
6581.148
6231.934
6003.88
5854.051
5792.035
5772.247
5768.228
5764.588
5770.317
5794.319
5779.942
5784.767
5779.454
5771.245
5777.719
5770.219
5779.002
5789.397
5786.514
5800.329
5805.069
5808.88
5854.869
5870.969
5877.21
5896.009
5906.856
5930.468
5913.44
5918.986
5914.014
5891.465
5857.19
5826.311
5804.8
5781.701
5766.616
5758.419
5769.254
5763.452
5753.155
5781.42
5795.419
5783.961
5788.823
5791.852
5784.743
5787.772
5782.397
5798.351
5800.867
5792.866
5795.675
5790.105
5781.677
5786.551
5783.9
5764.551
5789.458
5802.442
5774.678
5775.423
5785.097
5773.615
5761.693
5763.538
5761.925
5765.541
5775.582
5773.529
5809.466
5803.701
5791.192
5784.413
5794.283
5786.05
5780.895
5760.13
5789.91
5800.928
5791.999
5795.15
5782.483
5637.455
5472.125
5343.109
6210.582
6814.028
6709.577
6223.481
5944.649
5823.159
5781.457
5762.487
5752.214
5737.691
5746.779
5759.287
5758.224
5756.478
5747.622
5741.257
5752.801
5742.943
5751.164
5732.487
5733.452
5735.736
5744.849
5757.369
5772.101
5782.251
5795.052
5805.374
5811.494
5820.362
5799.413
5822.67
5792.927
5758.102
5731.534
5717.463
5691.237
5678.973
5674.515
5666.832
5655.154
5667.173
5644.429
5637.369
5643.477
5639.433
5638.432
5636.416
5616.909
5614.649
5620.585
5621.099
5612.011
5599.356
5600.858
5575.463
5587.629
5577.882
5573.326
5558.338
5549.165
5536.082
5540.516
5493.818
5487.222
5482.25
5488.761
5490.117
5460.471
5476.106
5443.578
5452.006
5413.468
5391.652
5405.589
5381.831
5359.514
5343.305
5323.639
5321.123
5312.01
5280.239
5240.516
5060.112
4866.37
4958.533
5914.747
6308.938
6020.517
5502.466
5263.749
5139.95
5089.551
5080.561
5028.036
5036.586
4996.79
4956.712
4969.856
4953.744
4907.352
4902.698
4864.917
4841.317
4784.237
4761.712
4744.807
4720.975
4709.261
4686.541
4668.28
4665.165
4632.27
4607.828
4608.451
4563.316
4545.995
4521.235
4484.676
4437.758
4365.335
4318.918
4286.646
4251.333
4218.45
4223.471
4176.504
4151.17
4115.783
4087.579
4072.481
4053.035
4019.407
4013.299
4008.865
3986.304
3972.477
3930.176
3939.179
3908.775
3885.237
3868.197
3841.043
3815.905
3793.942
3789.325
3773.128
3762.538
3730.326
3720.469
3677.436
3662.448
3658.038
3633.645
3607.773
3579.264
3566.719
3562.859
3546.259
3550.937
3523.368
3504.105
3482.704
3473.812
3460.876
3435.896
3400.851
3419.919
3386.206
3365.44
3360.542
3345.407
3295.399
3121.226
2953.281
3013.208
3911.817
4294.244
3992.815
3546.735
3318.742
3214.511
3175.57
3140.672
3117.952
3124.743
3099.068
3081.197
3087.329
3053.713
3044.796
3024.556
3006.991
3019.279
2997.121
2973.632
2967.341
2972.716
2969.796
2964.874
2956.47
2963.933
2957.3
2978.225
2977.174
2960.647
2948.31
2931.783
2912.41
2870.586
2841.759
2834.979
2810.366
2783.737
2793.949
2789.588
2774.1
2758.978
2754.238
2754.14
2738.615
2736.856
2733.204
2723.517
2742.964
2714.1
2713.684
2709.153
2710.716
2716.005
2711.791
2690.769
2696.84
2683.88
2667.536
2665.655
2667.304
2657.74
2632.87
2622.915
2614.254
2609.038
2604.213
2586.685
2595.064
2578.892
2563.855
2567.935
2560.911
2535.174
2539.572
2500.923
2540.952
2533.538
2522.935
2507.287
2518.928
2522.422
2522.226
2524.767
2522.08
2497.161
2496.306
2506.237
2488.684
2493.961
2486.754
2471.827
2481.526
2470.984
2487.573
2460.101
2401.835
2247.78
2043.362
2457.023
3284.406
3426.674
3010.606
2678.664
2506.005
2440.752
2397.242
2400.357
2386.164
2382.988
2371.469
2364.311
2369.172
2348.102
2346.672
2349.824
2338.354
2341.029
2338.806
2331.99
2332.027
2339.136
2341.298
2351.888
2363.15
2391.978
2384.844
2406.367
2413.354
2394.763
2394.409
2388.032
2365.887
2353.611
2339.661
2315.5
2298.313
2289.543
2290.276
2298.875
2293.977
2302.76
2292.89
2305.544
2283.814
2299.303
2300.964
2306.131
2300.952
2311.322
2315.194
2322.927
2310.577
2313.289
2318.187
2318.334
2311.408
2310.186
2312.336
2312.825
2295.174
2324.038
2330.451
2319.054
2319.115
2318.553
2336.216
2303.309
2336.387
2354.063
2334.286
2332.735
2331.501
2347.125
2345.817
2357.263
2366.632
2382.902
2376.917
2390.292
2386.554
2385.223
2402.336
2398.122
2400.284
2410.496
2397.023
2413.72
2417.959
2407.173
2334.995
2225.268
2066.228
2446.493
3248.738
3171.967
2916.795
2685.48
2540.39
2486.375
2457.902
2438.016
2455.716
2467.259
2450.402
2477.629
2480.72
2482.186
2482.98
2491.958
2513.016
2483.187
2525.219
2526.355
2513.493
2568.656
2563.965
2582.532
2604.971
2628.314
2663.432
2681.498
2672.361
2716.25
2708.554
2701.714
2676.636
2665.655
2644.364
2624.173
2598.411
2576.913
2568.045
2584.669
2577.78
2593.305
2597.397
2595.504
2625.016
2626.469
2635.411
2658.912
2648.102
2657.874
2664.531
2669.979
2674.059
2681.119
2690.439
2689.902
2691.832
2690.83
2700.443
2710.728
2718.912
2702.068
2709.372
2715.26
2733.265
2727.756
2709.482
2743.855
2753.285
2753.896
2767.662
2759.637
2763.29
2781.526
2779.657
2782.846
2781.258
2777.886
2786.522
2783.041
2789.429
2772.842
2747.324
2600.916
2427.462
2614.205
3554.541
3750.09
3454.866
3145.301
2939.173
2838.473
2810.061
2814.202
2795.72
2799.959
2795.366
2800.716
2812.04
2814.128
2811.197
2812.284
2800.79
2813.64
2813.554
2820.468
2831.009
2828.481
2841.16
2847.561
2876.95
2909.369
2895.749
2918.53
2936.474
2933.298
2933.176
2928.754
2927.031
2896.054
2849.93
2833.404
2816.938
2804.943
2789.564
2764.401
2765.904
2777.569
2781.087
2781.978
2766.917
2764.572
2771.07
2776.677
2764.157
2780.708
2785.814
2780.219
2786.73
2783.859
2778.802
2774.991
2805.59
2778.412
2772.646
2793.094
2785.728
2800.948
2787.304
2787.219
2776.628
2779.242
2797.113
2780.562
2796.661
2788.452
2767.113
2778.864
2772.744
2785.252
2785.081
2810.378
2806.237
2817.829
2818.501
2815.35
2810.024
2804.698
2806.995
2811.636
2825.769
2801.84
2798.298
2802.903
2793.79
2696.131
2534.502
2335.716
3144.947
3875.99
3887.729
3323.75
3004.169
2871.172
2819.527
2805.285
2779.377
2780.183
2796.832
2798.176
2793.851
2783.334
2771.449
2782.833
2790.016
2790.382
2766.013
2754.226
2775.346
2778.179
2787.915
2774.393
2784.421
2811.881
2832.976
2848.562
2857.272
2849.991
2873.542
2887.369
2869.157
2854.682
2834.821
2805.138
2818.465
2793.216
2789.283
2780.83
2771.083
2815.069
2809.34
2787.109
2769.776
2785.887
2777.532
2788.184
2782.101
2775.15
2788.404
2792.447
2793.693
2803.746
2807.52
2803.049
2814.873
2798.42
2791.127
2812.113
2815.362
2798.224
2806.005
2808.9
2833.123
2804.173
2824.841
2819.674
2800.826
2817.573
2811.404
2811.746
2839.328
2822.996
2822.85
2816.18
2817.157
2827.186
2845.057
2814.922
2834.552
2835.004
2817.28
2816.657
2825.562
2834.491
2823.387
2826.135
2834.454
2861.681
2848.868
2855.183
2839.963
2844.482
2852.96
2849.088
2831.632
2851.763
2848.55
2846.29
2827.577
2712.023
2521.152
2432.483
3326.291
3922.639
3810.384
3275.306
3029.32
2889.507
2851.469
2835.92
2831.168
2833.294
2830.105
2818.746
2829.58
2825.916
2828.921
2821.982
2825.134
2815.435
2802.512
2825.378
2810.867
2808.509
2821.97
2835.663
2841.502
2840.305
2851.641
2876.865
2877.768
2895.627
2892.695
2868.961
2884.206
2882.557
2854.193
2831.266
2824.145
2822.239
2789.198
2812.858
2824.56
2807.447
2815.57
2789.051
2805.871
2807.031
2805.248
2807.984
2821.03
2796.478
2811.062
2823.729
2826.624
2832.805
2833.611
2817.695
2832.292
2843.371
2851.36
2842.931
2846.693
2837.715
2848.269
2861.168
2832.035
2848.685
2842.418
2836.36
2853.314
2846.803
2851.469
2867.972
2856.759
2871.49
2852.569
2866.323
2869.181
2869.755
2878.819
2872.027
2867.263
2893.147
2882.398
2865.346
2872.895
2865.871
2855.158
2870.293
2899.621
2895.199
2888.982
2909.808
2907.353
2902.284
2915.073
2918.786
2913.363
2920.155
2919.495
2917.211
2904.226
2912.41
2922.817
2823.913
2714.808
2495.256
3061.629
3830.905
3799.219
3447.403
3190.924
3012.989
2977.931
2951.755
2952.463
2948.823
2924.039
2947.211
2949.531
2939.747
2932.247
2933.933
2936.572
2939.527
2941.775
2939.344
2946.502
2960.5
2970.431
2956.543
2983.135
3003.766
3020.574
3038.994
3047.911
3075.871
3089.161
3072.219
3094.157
3080.098
3062.532
3043.27
3018.681
2994.813
2960.464
2979.69
2980.765
2968.856
2968.672
2973.974
2967.732
2991.612
2992.736
2984.821
2990.012
2993.86
3012.646
3008.347
3013.086
3001.482
3006.967
3022.736
3017.117
3046.067
3012.769
3043.453
3023.738
3034.279
3038.567
3043.966
3049.768
3043.367
3041.681
3054.898
3067.296
3040.9
3057.109
3059.576
3071.352
3053.371
3063.754
3070.106
3076.763
3083.347
3073.27
3059.711
3066.258
3099.776
3109.792
3111.136
3106.604
3117.818
3115.643
3106.775
3110.684
3104.235
3103.025
3114.324
3112.846
3128.237
3120.786
3106.91
3097.15
2968.489
2830.96
2775.773
3509.04
3996.21
3843.841
3511.153
3324.227
3184.756
3166.543
3149.235
3127.455
3133.27
3133.135
3159.63
3142.077
3140.586
3161.169
3164.821
3159.349
3171.857
3168.217
3184.047
3173.359
3193.648
3219.178
3231.527
3233.139
3257.056
3280.876
3317.154
3314.345
3337.223
3366.185
3354.63
3361.079
3342.329
3323.86
3294.935
3274.011
3228.852
3226.617
3228.375
3215.599
3209.894
3227.545
3223.526
3232.785
3240.065
3234.275
3258.29
3247.077
3250.448
3266.144
3277.187
3283.404
3278.005
3280.607
3294.3
3267.818
3277.15
3286.385
3268.844
3286.128
3280.363
3303.864
3305.904
3296.706
3304.805
3290.489
3295.583
3296.889
3297.244
3310.864
3310.302
3305.477
3324.862
3303.889
3301.91
3292.114
3296.425
3330.249
3340.546
3335.697
3338.836
3345.395
3341.328
3336.613
3351.051
3334.622
3331.922
3354.312
3349.866
3347.973
3350.526
3341.376
3267.806
3122.301
2875.692
3452.496
4284.497
4331.549
3918.78
3599.076
3427.346
3363.547
3345.603
3346.067
3313.551
3343.844
3323.152
3320.574
3329.797
3323.872
3327.83
3333.864
3323.616
3314.931
3313.099
3323.262
3332.924
3304.842
3330.432
3359.565
3370.363
3374.528
3386.511
3407.105
3441.088
3433.27
3439.622
3450.505
3461.438
3425.831
3386.389
3378.95
3365.0
3354.789
3343.209
3331.104
3319.157
3336.222
3335.513
3338.921
3328.172
3347.716
3343.355
3336.906
3355.668
3352.028
3360.444
3351.674
3358.807
3379.194
3374.455
3360.847
3371.572
3366.588
3376.592
3378.791
3382.883
3396.332
3384.508
3378.51
3377.398
3384.862
3398.726
3397.663
3412.346
3387.818
3400.412
3403.184
3394.622
3391.8
3420.383
3406.458
3402.451
3418.526
3400.473
3403.868
3402.146
3397.761
3397.358
3395.074
3410.929
3429.434
3415.143
3430.436
3423.461
3419.296
3424.5
3413.701
3418.759
3407.057
3408.339
3419.101
3421.91
3425.99
3400.424
3265.204
3085.692
3004.621
3943.588
4513.21
4452.282
3872.033
3586.642
3458.628
3430.082
3419.785
3403.783
3390.664
3402.5
3412.431
3396.063
3408.95
3390.481
3396.429
3391.629
3377.02
3395.354
3379.695
3378.571
3386.938
3372.073
3381.723
3392.679
3400.448
3427.871
3435.273
3431.841
3465.615
3458.433
3456.894
3455.782
3452.081
3424.438
3414.581
3399.104
3399.691
3385.045
3393.767
3392.582
3396.454
3377.973
3397.663
3389.662
3382.712
3397.016
3370.729
3391.531
3397.871
3394.866
3392.081
3390.151
3402.537
3413.433
3410.978
3420.188
3409.463
3423.156
3435.505
3426.417
3433.074
3432.256
3410.501
3419.052
3438.962
3426.54
3428.237
3449.833
3429.52
3423.461
3428.433
3439.182
3434.198
3428.763
3432.843
3422.667
3441.1
3431.816
3439.096
3430.277
3426.735
3435.102
3413.213
3423.62
3439.048
3425.452
3424.072
3433.942
3439.646
3461.584
3429.96
3444.068
3453.95
3434.394
3436.935
3441.259
3448.258
3455.013
3432.574
3442.272
3453.339
3421.678
3313.49
3144.495
3001.164
3827.424
4460.857
4432.078
3888.608
3641.78
3489.435
3454.732
3435.029
3422.545
3421.36
3413.897
3409.781
3426.967
3405.456
3404.455
3408.84
3413.689
3412.272
3401.132
3401.34
3400.57
3389.296
3406.763
3414.948
3407.228
3414.166
3425.208
3453.388
3471.491
3474.068
3481.495
3474.874
3470.245
3481.018
3459.056
3435.762
3427.236
3422.704
3420.786
3400.46
3400.253
3405.09
3400.729
3412.333
3390.517
3392.386
3395.819
3392.985
3404.504
3400.741
3413.421
3431.816
3412.981
3417.684
3419.369
3420.481
3426.246
3429.337
3433.307
3425.819
3427.395
3441.894
3424.121
3433.771
3445.521
3435.334
3443.384
3432.378
3429.215
3439.207
3438.974
3430.827
3446.132
3446.816
3437.313
3437.96
3438.779
3444.105
3435.615
3433.184
3430.192
3435.542
3456.014
3452.423
3452.692
3433.331
3425.892
3436.715
3446.389
3447.708
3435.42
3443.555
3460.937
3452.826
3442.065
3449.76
3459.044
3462.012
3453.742
3452.374
3452.899
3434.528
3431.609
3308.75
3162.097
3038.09
3762.574
4423.65
4387.933
3883.454
3649.524
3513.01
3461.34
3441.002
3438.071
3455.208
3428.311
3443.543
3440.44
3426.906
3427.37
3410.746
3442.358
3431.145
3425.269
3423.865
3431.987
3434.614
3446.365
3449.54
3461.56
3462.305
3472.688
3494.186
3506.194
3515.697
3528.156
3510.347
3510.249
3506.609
3503.091
3487.834
3473.091
3450.725
3439.646
3438.058
3440.868
3432.806
3418.856
3441.796
3438.803
3442.602
3457.052
3448.832
3459.129
3451.629
3459.728
3454.023
3461.426
3477.708
3447.916
3472.859
3473.909
3470.294
3472.065
3464.223
3477.72
3483.4
3475.51
3477.158
3482.887
3479.943
3478.136
3485.819
3483.828
3473.396
3488.714
3493.746
3499.207
3486.283
3495.249
3479.785
3488.836
3489.593
3483.816
3498.254
3493.331
3508.417
3504.178
3500.037
3504.532
3510.2
3512.948
3521.511
3510.689
3509.027
3502.444
3518.347
3509.491
3512.838
3508.136
3379.17
3257.13
3114.397
3721.348
4325.661
4235.942
3908.006
3723.84
3577.81
3516.234
3511.654
3489.691
3519.642
3502.932
3506.56
3513.596
3466.751
3493.881
3504.093
3515.306
3500.575
3518.653
3529.585
3536.963
3531.369
3548.018
3564.105
3586.959
3585.701
3615.286
3638.103
3656.975
3687.134
3673.722
3672.598
3677.533
3669.801
3650.587
3609.764
3577.334
3555.115
3527.606
3511.287
3515.513
3514.964
3507.843
3506.022
3525.053
3528.327
3536.78
3529.561
3524.125
3538.698
3561.601
3544.488
3557.472
3542.838
3551.047
3547.896
3571.751
3556.299
3551.218
3552.208
3561.344
3564.154
3552.708
3559.255
3548.14
3564.08
3545.074
3553.294
3564.52
3534.264
3565.668
3570.347
3582.818
3599.113
3588.535
3595.607
3591.894
3573.999
3579.874
3597.024
3580.717
3590.001
3584.553
3585.591
3585.567
3567.354
3495.969
3367.211
3160.216
3626.829
4434.106
4362.257
4047.013
3855.115
3669.423
3595.51
3578.787
3578.531
3578.531
3579.923
3584.174
3570.664
3577.981
3588.987
3571.116
3573.119
3592.566
3600.958
3589.805
3616.043
3608.934
3630.738
3631.3
3650.905
3668.36
3696.711
3713.274
3734.492
3749.492
3760.522
3754.989
3761.145
3767.839
3729.545
3695.636
3663.999
3617.521
3601.361
3596.731
3574.878
3589.842
3595.045
3593.677
3600.249
3601.898
3604.561
3597.745
3601.531
3610.265
3603.926
3611.975
3616.654
3618.266
3615.542
3613.588
3622.187
3604.317
3616.519
3616.458
3619.414
3618.633
3592.468
3597.916
3603.535
3597.781
3606.625
3626.731
3640.082
3642.293
3639.019
3637.297
3633.254
3620.526
3623.177
3637.309
3636.076
3638.885
3629.687
3637.444
3629.137
3625.18
3609.484
3464.65
3303.815
3261.527
4182.868
4636.459
4428.06
4033.075
3792.928
3667.615
3640.253
3616.312
3606.369
3599.748
3611.829
3617.594
3607.725
3591.796
3616.348
3603.926
3608.372
3609.361
3604.744
3605.477
3595.216
3614.907
3611.694
3611.78
3623.983
3650.929
3678.743
3703.112
3695.025
3709.866
3704.895
3717.073
3717.244
3694.134
3666.65
3627.342
3608.58
3602.387
3577.712
3590.514
3583.111
3554.602
3579.251
3580.485
3574.585
3588.095
3576.405
3597.159
3587.887
3589.06
3606.698
3584.785
3589.952
3595.119
3600.298
3607.871
3609.691
3607.334
3622.114
3602.423
3621.063
3618.144
3627.256
3620.66
3604.866
3624.875
3628.05
3608.848
3614.675
3595.461
3611.804
3621.32
3621.772
3643.576
3621.918
3628.527
3641.438
3634.671
3638.739
3629.137
3626.084
3623.409
3636.125
3631.275
3631.495
3626.267
3626.267
3499.781
3355.778
3164.186
3945.653
4715.124
4733.068
4177.042
3867.318
3694.744
3640.168
3623.067
3603.633
3633.107
3611.279
3608.751
3618.474
3614.479
3623.531
3618.938
3613.588
3598.527
3611.206
3602.619
3609.642
3621.381
3632.423
3601.104
3624.606
3652.566
3656.035
3663.926
3699.301
3703.71
3697.151
3694.011
3712.798
3692.851
3688.441
3666.198
3635.025
3638.152
3634.646
3646.031
3645.432
3639.496
3628.246
3622.676
3632.704
3628.771
3628.136
3633.938
3637.273
3648.742
3647.045
3652.248
3643.258
3652.627
3648.84
3675.848
3667.334
3661.287
3671.743
3660.579
3669.032
3681.515
3682.285
3687.562
3667.065
3682.896
3675.579
3677.619
3688.417
3669.618
3680.697
3690.09
3685.901
3696.1
3677.753
3688.38
3712.065
3688.502
3694.378
3684.032
3695.062
3684.826
3676.458
3705.921
3703.673
3712.346
3726.235
3713.787
3711.369
3709.549
3710.673
3706.69
3711.271
3705.2
3708.254
3704.675
3704.418
3712.065
3690.481
3541.495
3325.473
3460.827
4418.336
4848.451
4572.979
4063.21
3840.994
3749.822
3725.502
3717.464
3689.553
3710.123
3702.928
3698.067
3704.235
3711.931
3690.066
3700.278
3695.624
3692.204
3687.22
3695.282
3698.335
3686.133
3697.884
3718.539
3717.55
3722.118
3736.092
3745.033
3752.607
3754.744
3769.915
3763.27
3758.201
3744.337
3732.281
3731.169
3714.496
3699.41
3707.643
3698.714
3709.304
3700.009
3697.151
3699.41
3703.588
3702.342
3698.165
3690.225
3719.064
3727.859
3726.051
3733.649
3732.183
3735.518
3741.393
3736.092
3753.352
3738.938
3737.985
3758.409
3742.285
3747.476
3752.79
3743.152
3743.714
3752.338
3754.805
3741.674
3746.23
3753.767
3744.655
3739.757
3751.397
3754.39
3751.263
3741.21
3755.807
3738.352
3734.199
3749.687
3747.635
3725.294
3740.526
3739.304
3733.698
3726.393
3722.045
3734.015
3747.55
3751.556
3751.544
3742.212
3750.017
3730.62
3726.479
3724.06
3723.584
3715.534
3716.621
3715.986
3714.471
3700.51
3672.708
3514.756
3331.067
3464.956
4372.433
4740.25
4445.454
4001.683
3784.439
3683.152
3654.288
3637.859
3624.117
3616.971
3612.159
3598.405
3599.272
3589.952
3598.795
3580.363
3570.542
3573.4
3575.416
3564.618
3563.005
3565.583
3565.803
3551.181
3560.257
3564.19
3561.601
3575.269
3555.115
3573.51
3571.275
3556.324
3564.862
3545.905
3530.782
3503.14
3497.435
3473.066
3450.933
3438.632
3450.908
3434.21
3427.114
3413.445
3399.508
3402.158
3373.429
3381.393
3400.876
3372.317
3375.823
3374.125
3368.921
3360.261
3341.902
3354.972
3346.495
3342.83
3352.187
3325.692
3331.788
3308.469
3311.254
3313.209
3304.683
3292.321
3295.485
3291.393
3283.502
3270.358
3269.455
3265.057
3243.156
3246.136
3251.682
3240.786
3242.313
3216.368
3207.891
3221.767
3193.428
3201.649
3185.672
3174.373
3160.326
3138.168
3155.489
3165.383
3156.576
3157.858
3157.797
3157.663
3148.257
3133.074
3126.527
3108.021
3120.309
3097.871
3091.653
3094.438
3085.802
3081.173
3019.462
2863.611
2695.924
2968.33
3816.064
3947.778
3628.844
3306.173
3145.704
3065.244
3035.928
3020.171
3001.873
2994.861
2977.87
2992.528
2985.016
2976.869
2971.628
2969.931
2962.895
2968.404
2955.492
2966.376
2964.971
2967.695
2971.848
2985.212
2990.342
2992.663
3013.66
3003.4
3026.071
3027.463
3009.654
3024.275
3017.154
2988.864
2968.501
2929.682
2905.301
2884.707
2869.951
2857.528
2846.828
2830.851
2851.873
2839.132
2841.294
2825.806
2835.969
2844.373
2838.705
2850.651
2849.71
2830.68
2821.787
2849.43
2836.592
2832.976
2822.105
2811.673
2824.645
2811.893
2817.915
2817.377
2819.955
2802.512
2772.133
2784.47
2793.949
2792.691
2784.092
2776.408
2782.882
2773.037
2773.709
2766.966
2758.953
2748.094
2742.768
2743.025
2759.735
2740.704
2767.443
2749.047
2746.506
2728.855
2732.459
2752.76
2722.784
2721.905
2725.276
2721.759
2721.026
2710.472
2709.837
2616.673
2476.53
2310.443
2714.857
3519.178
3460.424
3174.556
2935.399
2795.671
2708.09
2680.252
2672.166
2650.325
2667.109
2662.491
2658.314
2673.069
2667.744
2671.384
2652.548
2649.641
2665.643
2676.453
2657.08
2682.133
2691.893
2691.551
2693.957
2724.348
2753.713
2746.494
2780.61
2791.555
2785.716
2805.859
2809.633
2807.996
2786.608
2767.21
2729.209
2681.009
2671.152
2658.289
2656.42
2664.348
2668.697
2654.295
2686.384
2688.741
2704.816
2712.109
2729.136
2732.031
2719.841
2736.27
2740.325
2737.565
2753.273
2745.773
2743.232
2746.75
2770.545
2756.938
2762.679
2761.335
2760.431
2772.658
2776.018
2781.844
2794.242
2771.51
2769.397
2804.368
2793.839
2784.69
2830.02
2827.516
2823.46
2834.991
2839.401
2850.871
2846.217
2835.431
2836.494
2851.457
2866.506
2848.868
2874.531
2872.785
2860.68
2857.43
2734.633
2599.621
2486.876
3175.509
3743.372
3645.249
3289.389
3107.398
2945.293
2918.652
2902.956
2895.102
2891.95
2889.299
2891.865
2921.156
2911.799
2929.597
2923.501
2929.145
2934.654
2929.78
2945.476
2933.212
2956.616
2990.635
2985.761
2997.646
3024.055
3049.988
3073.868
3085.143
3089.625
3110.818
3128.726
3131.975
3106.213
3078.302
3069.495
3030.554
3015.834
3011.889
2994.788
3006.539
3009.239
3011.523
2995.057
3004.377
3022.455
3037.028
3030.199
3055.814
3046.506
3047.447
3059.979
3054.642
3057.304
3070.57
3083.762
3067.602
3060.334
3090.053
3089.552
3090.554
3090.444
3095.195
3097.736
3091.69
3102.243
3118.868
3105.236
3125.318
3124.743
3110.855
3129.422
3120.493
3133.575
3138.437
3155.892
3166.824
3157.333
3171.991
3175.619
3155.721
3173.994
3171.527
3184.805
3195.444
3178.88
3192.292
3172.394
3176.975
3171.271
3024.935
2861.522
2839.816
3774.276
4253.764
4053.45
3619.158
3384.007
3256.458
3205.949
3228.375
3222.341
3192.524
3226.543
3219.715
3217.492
3210.566
3236.841
3225.786
3236.486
3220.448
3227.069
3237.5
3229.866
3245.831
3259.121
3260.965
3268.551
3302.008
3312.085
3326.315
3359.589
3368.64
3374.162
3373.417
3370.106
3367.358
3349.194
3323.054
3302.582
3296.389
3279.068
3282.219
3294.227
3278.445
3292.248
3288.302
3270.896
3319.854
3293.653
3297.879
3301.824
3302.765
3336.637
3320.489
3325.778
3333.425
3327.537
3352.187
3336.747
3332.289
3349.475
3360.029
3360.542
3358.978
3350.464
3362.521
3359.271
3373.905
3370.057
3369.679
3400.057
3384.19
3373.71
3372.867
3374.723
3394.206
3391.373
3384.715
3401.645
3386.169
3375.762
3380.379
3389.65
3402.244
3402.989
3412.944
3410.489
3416.56
3434.088
3429.117
3417.696
3422.313
3419.614
3430.937
3432.513
3438.877
3423.547
3434.846
3371.132
3203.066
2957.984
3683.726
4474.892
4576.411
4028.238
3665.331
3524.26
3471.869
3424.854
3426.344
3432.708
3441.271
3428.396
3436.983
3441.307
3426.356
3433.807
3444.935
3441.979
3440.379
3432.183
3439.854
3426.845
3433.209
3443.543
3440.733
3461.707
3485.245
3491.841
3498.254
3511.763
3533.347
3517.688
3509.088
3510.286
3504.948
3490.754
3480.481
3471.381
3472.028
3478.233
3469.17
3471.479
3450.676
3474.85
3479.272
3461.01
3475.485
3473.934
3482.875
3490.351
3480.591
3492.684
3489.202
3505.375
3518.091
3496.849
3510.945
3515.685
3513.987
3537.256
3509.944
3518.86
3522.855
3524.724
3523.343
3536.157
3523.966
3544.939
3525.163
3535.375
3521.413
3542.118
3553.795
3539.223
3535.461
3550.241
3539.357
3563.14
3547.065
3536.083
3556.996
3540.75
3545.77
3540.286
3533.384
3537.684
3556.47
3568.148
3565.778
3557.765
3590.672
3559.61
3567.305
3565.668
3549.325
3562.896
3559.304
3555.554
3552.513
3549.569
3568.954
3452.997
3325.155
3121.421
3791.475
4563.121
4616.781
4080.909
3795.347
3630.09
3580.778
3569.125
3551.963
3556.666
3536.462
3531.588
3552.427
3539.809
3545.563
3535.351
3549.374
3544.072
3537.0
3526.104
3526.214
3543.718
3550.18
3524.907
3549.52
3570.2
3579.459
3592.26
3605.257
3619.378
3613.808
3593.25
3595.29
3607.395
3597.55
3574.744
3548.066
3553.905
3548.408
3547.419
3538.747
3531.552
3543.132
3530.672
3531.405
3543.706
3538.026
3551.133
3556.959
3543.107
3546.198
3555.518
3544.964
3561.906
3560.147
3574.683
3572.765
3567.818
3568.893
3564.899
3575.245
3591.491
3584.773
3581.719
3571.58
3594.813
3581.475
3568.417
3583.087
3569.944
3602.277
3595.632
3587.24
3590.404
3574.732
3589.17
3588.669
3592.664
3600.615
3576.747
3587.606
3579.594
3553.209
3564.777
3577.932
3576.979
3590.453
3581.646
3591.295
3570.359
3574.891
3581.817
3551.841
3555.273
3565.473
3550.326
3550.766
3547.383
3536.621
3517.065
3346.067
3192.231
3305.159
4178.214
4476.016
4209.105
3821.011
3621.32
3500.978
3493.466
3474.251
3450.444
3446.743
3422.973
3405.298
3418.698
3417.977
3394.182
3393.938
3374.76
3391.947
3362.252
3362.814
3367.688
3358.868
3341.267
3344.992
3364.781
3343.905
3357.708
3384.215
3363.864
3352.15
3350.929
3321.381
3310.534
3286.25
3260.257
3235.766
3197.313
3175.521
3135.285
3122.142
3112.797
3109.743
3086.816
3074.076
3069.263
3064.719
3039.52
3041.95
3016.396
3002.251
3009.91
2990.403
2977.907
2954.906
2925.334
2919.08
2916.942
2902.516
2874.666
2835.126
2844.153
2829.715
2800.154
2803.465
2771.51
2751.355
2746.946
2709.617
2694.336
2687.972
2668.22
2653.733
2648.432
2641.384
2618.444
2601.135
2584.132
2545.203
2541.575
2535.321
2493.827
2487.072
2465.488
2439.824
2436.77
2409.739
2405.756
2331.086
2181.684
2022.242
2090.829
2912.141
3058.978
2815.924
2533.464
2342.202
2232.279
2186.253
2145.907
2149.18
2099.722
2090.304
2075.06
2057.238
2063.81
2028.325
2037.401
2023.512
2002.38
1987.051
1993.561
1988.968
1994.538
1974.408
1981.371
1995.357
2000.182
2047.552
2028.252
2031.587
2023.085
2036.155
2024.49
2004.567
1977.841
1944.445
1874.734
1878.142
1836.953
1800.332
1776.33
1768.475
1772.812
1759.668
1746.574
1774.18
1749.53
1749.041
1754.685
1735.08
1738.61
1715.682
1705.483
1712.506
1701.684
1693.268
1693.292
1677.278
1674.53
1677.327
1672.026
1657.197
1667.128
1665.576
1640.499
1650.784
1669.045
1680.308
1699.803
1673.895
1686.391
1678.756
1674.676
1663.329
1691.558
1693.646
1671.818
1677.816
1659.64
1679.245
1685.511
1681.7
1662.083
1536.439
1392.07
1329.774
2013.569
2502.292
2370.296
2029.095
1837.05
1725.735
1665.869
1659.176
1641.122
1621.272
1672.588
1645.031
1636.529
1650.442
1651.59
1643.492
1639.668
1654.754
1637.604
1649.367
1648.512
1642.685
1671.72
1707.681
1680.075
1713.838
1752.486
1748.455
1755.833
1794.005
1803.178
1794.628
1772.543
1756.224
1731.427
1698.044
1677.229
1623.96
1600.116
1597.478
1585.788
1607.482
1609.094
1622.079
1610.816
1609.448
1623.715
1631.716
1620.723
1624.619
1617.242
1618.439
1599.383
1602.058
1622.934
1641.977
1622.03
1609.839
1627.893
1624.241
1609.094
1624.619
1588.939
1602.07
1615.409
1634.709
1617.327
1641.293
1632.571
1604.135
1620.992
1626.855
1624.265
1619.172
1610.316
1604.22
1609.754
1621.578
1619.965
1602.816
1506.916
1366.37
1171.15
1774.852
2503.843
2499.311
2098.83
1834.375
1676.167
1633.268
1622.384
1601.985
1601.191
1592.897
1582.661
1580.083
1594.326
1602.913
1600.678
1582.588
1585.727
1595.45
1596.989
1605.894
1602.193
1611.537
1622.408
1634.636
1664.941
1675.104
1685.23
1700.694
1728.85
1746.72
1721.399
1723.781
1714.302
1687.954
1677.4
1641.769
1617.926
1616.081
1609.717
1621.431
1590.698
1597.05
1616.875
1619.636
1614.53
1600.58
1597.392
1632.168
1636.053
1622.36
1646.57
1636.15
1644.31
1645.446
1653.068
1658.858
1652.14
1665.381
1662.926
1672.624
1676.753
1672.637
1683.508
1675.617
1656.61
1660.495
1669.607
1681.26
1685.157
1681.309
1682.726
1695.723
1702.576
1694.11
1684.106
1706.155
1705.153
1695.442
1712.115
1704.933
1713.545
1710.552
1691.545
1656.415
1504.204
1275.71
1748.638
2643.326
2853.741
2410.642
2018.358
1839.799
1760.927
1743.923
1746.134
1737.413
1737.51
1732.832
1747.27
1753.146
1740.283
1749.615
1748.944
1766.448
1775.536
1750.556
1764.689
1776.769
1770.699
1794.921
1808.089
1827.584
1830.967
1853.199
1878.875
1872.523
1893.801
1904.966
1891.823
1882.026
1880.682
1872.291
1846.346
1824.127
1844.343
1836.183
1842.816
1852.747
1853.235
1855.055
1838.443
1843.818
1853.052
1852.344
1868.87
1868.455
1849.229
1877.03
1874.208
1901.485
1893.325
1882.82
1914.823
1913.724
1925.133
1922.665
1928.101
1935.039
1921.395
1929.164
1963.867
1946.692
1936.248
1953.899
1946.045
1958.504
1968.227
1960.593
1975.434
1968.924
1951.896
1945.019
1985.108
2004.872
1985.353
1987.099
2024.441
2010.809
2015.646
1994.685
2007.193
2019.372
2015.06
2022.987
2016.306
2032.136
2036.729
2022.499
1898.174
1736.362
1587.18
2429.148
3114.349
3131.621
2542.137
2252.043
2118.276
2076.196
2057.983
2046.782
2037.523
2043.227
2048.7
2039.673
2065.972
2052.767
2048.932
2055.113
2062.185
2067.511
2060.988
2071.285
2060.792
2075.939
2105.67
2100.687
2103.484
2130.516
2135.109
2157.218
2164.608
2168.48
2153.712
2164.559
2170.667
2161.725
2139.359
2127.132
2133.643
2137.552
2120.194
2109.152
2144.844
2124.066
2155.202
2140.605
2141.375
2154.934
2144.966
2140.141
2160.357
2145.076
2173.904
2170.899
2162.739
2201.216
2191.224
2203.024
2189.71
2206.811
2214.897
2204.197
2217.279
2220.406
2223.289
2242.332
2226.55
2225.622
2248.073
2226.929
2236.774
2235.772
2244.066
2260.483
2247.609
2243.639
2249.478
2276.632
2281.64
2266.347
2265.394
2255.658
2246.021
2253.606
2279.355
2301.794
2294.502
2290.862
2290.703
2288.957
2297.226
2308.843
2304.763
2300.878
2309.588
2301.33
2319.738
2325.944
2313.02
2299.645
2166.404
2027.666
1950.296
2815.948
3378.29
3254.21
2731.298
2464.596
2374.242
2352.194
2337.89
2326.2
2334.311
2324.295
2333.016
2314.767
2331.782
2315.133
2328.301
2334.347
2328.497
2327.617
2340.711
2333.053
2345.769
2347.955
2370.406
2372.031
2388.863
2409.751
2424.897
2422.882
2442.096
2431.249
2441.827
2427.084
2433.362
2408.554
2403.606
2383.831
2361.746
2375.304
2381.656
2394.861
2392.54
2399.148
2377.528
2386.09
2391.734
2397.316
2400.198
2398.708
2416.286
2421.966
2402.251
2415.125
2423.969
2441.241
2439.629
2442.292
2469.372
2460.919
2457.45
2467.21
2464.315
2470.093
2466.844
2476.689
2482.87
2495.463
2495.646
2493.668
2486.84
2488.134
2495.354
2501.437
2501.29
2504.6
2512.283
2511.746
2515.74
2503.757
2528.932
2526.257
2531.4
2524.523
2545.777
2545.679
2556.282
2547.304
2541.844
2557.039
2565.724
2554.694
2550.944
2557.332
2568.265
2564.6
2577.047
2562.939
2419.413
2288.456
2233.476
2931.71
3473.421
3329.614
2963.127
2776.079
2652.267
2621.754
2598.814
2603.786
2593.611
2595.688
2614.706
2608.965
2599.816
2621.033
2636.999
2627.593
2616.905
2625.565
2649.091
2655.003
2652.89
2669.307
2654.979
2672.825
2709.653
2730.712
2738.139
2766.795
2766.307
2779.071
2792.447
2803.721
2772.438
2756.351
2706.465
2688.204
2702.911
2673.436
2658.228
2651.864
2635.533
2661.868
2649.177
2655.382
2672.972
2675.903
2690.769
2689.865
2690.916
2712.292
2704.67
2682.634
2697.023
2703.094
2725.154
2701.592
2711.62
2714.429
2714.32
2707.32
2706.49
2723.041
2735.573
2740.521
2748.888
2731.982
2727.06
2742.89
2747.569
2739.458
2736.526
2732.495
2733.473
2738.994
2735.146
2748.729
2740.264
2769.727
2765.757
2766.465
2765.256
2767.479
2762.96
2760.932
2770.814
2783.078
2783.737
2773.843
2764.181
2778.521
2783.237
2725.802
2579.747
2400.198
2659.242
3571.348
3831.222
3486.613
3084.153
2874.739
2818.159
2788.44
2769.153
2758.465
2775.798
2779.071
2782.04
2777.276
2776.164
2783.127
2785.545
2780.635
2769.031
2780.305
2775.981
2790.553
2802.072
2800.875
2829.996
2817.561
2833.33
2862.622
2873.774
2873.982
2901.905
2894.442
2912.581
2899.474
2867.508
2856.539
2827.748
2827.101
2797.235
2812.785
2790.883
2805.7
2809.511
2800.899
2798.615
2825.146
2821.726
2828.676
2828.383
2828.457
2819.271
2826.478
2861.193
2861.669
2840.122
2863.697
2857.882
2863.941
2853.68
2845.68
2856.685
2886.319
2878.599
2880.712
2883.815
2877.573
2856.991
2877.329
2892.658
2881.946
2885.366
2897.41
2888.493
2895.834
2888.615
2875.338
2903.102
2882.618
2890.374
2897.447
2906.926
2908.514
2915.354
2937.439
2929.597
2934.959
2924.515
2923.953
2926.922
2920.838
2921.791
2928.876
2926.054
2927.569
2935.057
2909.955
2752.259
2589.897
2629.828
3543.522
3981.516
3758.849
3279.471
3047.362
2981.718
2938.587
2939.442
2942.703
2917.626
2929.523
2924.796
2917.186
2921.571
2912.703
2934.348
2918.469
2949.373
2924.515
2926.665
2929.328
2917.602
2912.508
2920.277
2942.105
2957.166
2962.541
2965.936
2999.32
2998.538
2989.89
2998.721
2972.276
2989.181
2978.334
2962.113
2948.567
2931.405
2937.817
2932.907
2930.452
2946.759
2923.819
2931.148
2929.939
2928.974
2945.11
2943.998
2948.652
2940.041
2958.339
2966.694
2959.365
2962.247
2979.947
2965.619
2975.525
2970.419
2971.824
2971.97
2979.263
2961.026
2964.336
2987.459
2992.76
2987.716
2992.968
2996.474
2985.871
2982.83
2993.249
2992.589
3008.896
2993.738
3003.717
2995.619
2999.992
2993.139
2971.36
3017.618
3012.158
3009.715
3012.622
3026.205
3022.272
3012.036
3003.668
3008.164
3015.615
3012.048
3021.661
3014.833
3019.267
3018.363
3001.873
2903.2
2763.033
2605.398
3251.682
3942.758
3960.628
3484.304
3230.171
3091.494
3046.763
3033.045
3024.923
3020.012
3023.848
3020.55
3005.061
3022.003
3011.4
3011.865
3017.569
3015.273
3019.45
3019.206
3032.887
3019.255
3029.698
3043.746
3057.256
3063.766
3076.58
3102.427
3120.419
3111.063
3106.507
3128.493
3122.813
3116.938
3088.453
3081.466
3056.596
3031.03
3038.273
3015.407
3042.549
3032.777
3031.995
3035.598
3042.976
3045.187
3044.381
3041.229
3042.524
3062.459
3065.037
3072.659
3080.806
3087.476
3087.292
3074.943
3068.115
3054.104
3088.978
3103.367
3101.266
3082.223
3100.546
3109.829
3094.096
3098.017
3098.164
3107.96
3113.139
3103.379
3091.47
3104.015
3100.851
3085.362
3095.195
3087.097
3109.206
3114.996
3124.524
3130.949
3130.802
3121.702
3134.112
3121.311
3138.852
3122.129
3126.038
3124.634
3123.986
3128.042
3136.555
3130.802
3099.752
2948.921
2809.694
2920.069
3776.377
3976.19
3735.86
3445.436
3277.675
3176.254
3143.31
3132.72
3126.356
3123.644
3122.288
3127.529
3144.996
3133.941
3137.227
3137.362
3146.73
3148.929
3143.933
3147.976
3163.941
3154.377
3167.85
3195.676
3206.059
3227.728
3225.542
3270.42
3277.052
3281.938
3278.311
3273.4
3282.61
3254.198
3236.682
3208.245
3167.96
3155.085
3129.825
3127.797
3134.406
3130.973
3136.592
3145.143
3130.448
3145.643
3167.899
3157.016
3165.957
3161.706
3186.832
3182.606
3163.685
3181.042
3175.619
3176.841
3168.449
3180.029
3187.284
3174.092
3189.324
3189.08
3193.538
3205.082
3192.696
3192.793
3194.772
3176.486
3185.647
3164.882
3195.212
3220.729
3199.621
3218.921
3222.964
3208.685
3216.649
3220.387
3223.734
3222.989
3214.707
3231.515
3219.104
3217.431
3223.367
3227.679
3205.546
3077.337
2960.904
2881.311
3616.727
4147.176
3993.56
3622.297
3402.317
3280.265
3254.186
3240.358
3224.442
3235.35
3219.678
3233.542
3227.716
3227.142
3225.542
3225.933
3247.358
3237.011
3237.109
3251.755
3247.761
3265.204
3266.67
3274.426
3284.87
3306.002
3326.975
3354.911
3357.659
3376.336
3378.144
3364.512
3381.735
3371.816
3350.721
3310.436
3278.054
3285.676
3259.255
3244.133
3231.674
3244.731
3263.396
3243.522
3244.707
3272.582
3258.498
3254.858
3269.968
3271.727
3283.392
3272.459
3272.191
3288.73
3296.975
3274.829
3288.656
3291.417
3291.796
3288.962
3279.752
3296.401
3285.505
3302.96
3291.026
3297.512
3301.226
3291.686
3305.758
3291.967
3296.523
3288.559
3292.553
3296.511
3291.478
3285.469
3306.649
3328.514
3314.614
3326.425
3308.481
3317.679
3304.328
3309.373
3311.462
3297.097
3317.398
3320.196
3310.815
3307.712
3307.199
3223.868
3065.965
2839.963
3536.878
4314.252
4394.188
3851.353
3538.636
3386.487
3339.801
3315.957
3315.029
3291.784
3281.914
3294.752
3310.668
3297.464
3291.442
3284.174
3300.249
3297.61
3306.515
3280.472
3298.331
3296.657
3294.825
3311.047
3308.518
3322.199
3334.06
3331.311
3374.32
3365.819
3381.943
3379.133
3382.688
3363.84
3343.661
3334.805
3339.239
3298.881
3297.659
3311.474
3310.424
3315.578
3299.21
3301.519
3314.614
3303.486
3321.039
3312.647
3310.497
3346.409
3341.499
3342.415
3331.055
3343.367
3362.936
3342.464
3355.106
3351.161
3358.563
3372.207
3371.609
3362.423
3368.164
3362.203
3368.506
3360.029
3367.236
3383.445
3370.399
3376.885
3370.705
3359.772
3391.434
3379.67
3362.203
3363.07
3366.698
3398.323
3404.235
3413.213
3414.3
3398.555
3410.452
3402.158
3405.591
3417.158
3398.848
3410.721
3406.116
3407.667
3412.663
3410.354
3400.473
3305.025
3158.506
2976.612
3672.989
4408.076
4452.428
3899.162
3618.242
3474.654
3439.719
3429.593
3409.854
3409.341
3404.614
3413.873
3413.689
3401.572
3410.929
3397.981
3399.031
3405.896
3406.055
3402.647
3406.629
3399.422
3405.713
3420.676
3431.78
3429.801
3428.188
3474.031
3487.749
3488.506
3507.036
3482.154
3478.673
3480.09
3460.46
3455.733
3448.539
3444.544
3419.846
3403.453
3425.318
3423.498
3420.456
3422.899
3423.815
3429.618
3427.272
3413.592
3435.053
3439.597
3448.087
3446.316
3445.436
3449.21
3468.339
3469.231
3463.771
3452.618
3460.057
3474.178
3472.883
3473.445
3465.713
3465.078
3482.448
3486.588
3487.468
3459.923
3486.564
3503.384
3480.457
3485.281
3489.251
3491.303
3492.891
3466.202
3478.246
3475.705
3500.501
3515.905
3509.944
3517.138
3514.768
3499.292
3512.313
3513.913
3503.604
3510.921
3510.554
3515.269
3515.55
3513.095
3520.167
3487.932
3341.181
3220.326
3230.843
4068.682
4452.416
4218.059
3858.865
3666.65
3574.463
3531.149
3517.492
3510.493
3501.967
3524.235
3519.96
3520.216
3524.883
3503.921
3508.478
3509.931
3520.815
3529.475
3538.673
3553.649
3540.591
3560.807
3576.613
3577.602
3587.68
3624.703
3630.164
3658.331
3649.256
3640.888
3650.453
3655.681
3638.592
3609.471
3587.362
3584.333
3562.749
3533.787
3541.397
3536.022
3562.676
3552.757
3555.066
3555.371
3555.102
3572.325
3568.942
3584.992
3589.683
3591.308
3601.348
3594.716
3595.216
3588.071
3591.222
3624.422
3606.601
3616.788
3625.986
3606.247
3615.432
3614.186
3617.411
3618.669
3611.462
3610.229
3637.529
3619.207
3622.456
3617.875
3611.218
3631.019
3648.718
3645.97
3663.559
3650.758
3665.331
3669.374
3650.831
3659.235
3663.523
3671.817
3670.265
3656.756
3660.872
3673.075
3670.62
3649.866
3623.067
3491.108
3327.732
3497.985
4398.072
4647.539
4320.494
3968.568
3787.371
3694.695
3678.291
3670.009
3666.234
3658.527
3664.989
3665.233
3652.505
3670.644
3658.185
3680.159
3673.954
3684.667
3689.028
3679.537
3676.703
3696.186
3715.742
3708.193
3712.7
3735.127
3756.247
3779.333
3785.795
3783.535
3789.007
3798.193
3787.261
3782.839
3749.296
3727.798
3722.668
3686.487
3694.011
3675.567
3678.34
3681.967
3670.339
3675.335
3699.496
3709.476
3709.28
3697.823
3711.015
3699.691
3710.294
3720.579
3701.475
3713.568
3719.577
3712.09
3746.609
3734.309
3709.708
3731.365
3718.185
3727.419
3717.44
3745.278
3740.208
3721.642
3737.9
3727.322
3741.955
3720.53
3736.776
3734.773
3744.41
3731.365
3730.265
3745.693
3727.957
3720.884
3700.815
3716.243
3739.109
3714.801
3714.545
3735.347
3721.752
3721.703
3704.846
3736.91
3717.562
3702.354
3698.653
3690.726
3683.262
3688.112
3687.183
3663.498
3620.269
3472.822
3270.102
3549.911
4430.466
4683.268
4340.429
3913.136
3710.782
3653.054
3592.334
3590.953
3564.447
3551.548
3549.716
3538.649
3517.871
3524.296
3501.772
3501.149
3473.567
3456.466
3451.983
3441.454
3441.393
3422.093
3431.633
3413.934
3414.679
3420.481
3405.994
3407.79
3420.554
3414.434
3393.938
3363.815
3364.732
3326.963
3297.757
3281.059
3237.732
3214.304
3192.109
3175.619
3159.177
3172.822
3148.16
3120.041
3120.468
3089.576
3071.401
3068.811
3045.615
3038.176
3033.876
3021.27
3005.317
2986.934
2962.174
2950.264
2952.036
2925.028
2904.727
2902.687
2883.119
2874.177
2855.049
2827.809
2815.533
2794.499
2777.911
2763.057
2738.004
2745.162
2721.856
2697.842
2677.369
2662.906
2655.199
2631.465
2614.706
2600.842
2586.709
2560.203
2529.592
2526.795
2509.657
2485.068
2481.551
2480.121
2460.87
2455.96
2417.862
2405.817
2384.453
2363.553
2367.56
2351.058
2336.693
2314.852
2295.418
2276.839
2262.474
2222.336
2074.131
1868.907
1887.12
2747.043
3192.671
2959.646
2477.495
2247.316
2145.345
2096.705
2082.132
2059.009
2050.935
2043.435
2038.732
2028.765
2012.25
2008.39
2000.89
1981.92
1971.611
1952.788
1940.878
1938.178
1927.918
1925.878
1915.996
1907.47
1929.359
1906.468
1936.065
1925.988
1916.521
1921.419
1892.8
1888.866
1877.36
1824.518
1803.96
1777.295
1755.589
1728.52
1705.727
1709.159
1705.019
1667.372
1693.536
1673.235
1654.485
1663.61
1657.392
1656.586
1649.037
1627.661
1634.135
1626.574
1628.821
1612.673
1617.608
1613.284
1597.294
1593.728
1600.763
1581.513
1583.418
1567.343
1560.259
1564.167
1534.888
1550.926
1530.332
1551.513
1551.61
1529.758
1530.259
1527.412
1509.456
1532.017
1521.415
1502.738
1502.75
1504.827
1499.403
1476.512
1476.134
1487.616
1472.714
1463.626
1497.205
1503.19
1502.188
1489.302
1484.489
1479.383
1473.312
1474.558
1480.873
1478.723
1475.169
1467.498
1473.752
1469.391
1404.456
1265.694
1083.715
1426.944
2233.745
2304.909
1987.979
1717.307
1563.618
1488.715
1457.433
1443.569
1446.122
1442.054
1439.843
1441.065
1450.226
1433.333
1456.822
1455.771
1457.103
1447.062
1459.619
1464.175
1467.021
1469.709
1468.39
1492.795
1511.85
1530.051
1544.123
1561.285
1559.196
1561.297
1587.009
1572.376
1572.73
1554.176
1519.253
1500.258
1471.822
1471.199
1468.964
1432.99
1436.545
1461.842
1452.791
1449.713
1460.914
1468.548
1470.185
1464.212
1481.985
1485.613
1482.131
1496.435
1473.349
1481.423
1490.474
1494.004
1489.741
1475.438
1497.986
1504.131
1516.358
1502.213
1490.975
1505.071
1494.591
1492.062
1499.904
1491.964
1481.594
1520.096
1501.138
1513.732
1496.496
1489.815
1500.112
1507.123
1518.923
1506.635
1506.659
1511.728
1526.973
1536.207
1539.09
1516.028
1528.084
1522.636
1526.936
1537.062
1524.114
1550.303
1410.283
1279.045
1174.936
1732.014
2366.778
2315.036
1958.516
1764.115
1609.18
1572.29
1577.372
1561.101
1535.865
1531.297
1563.569
1564.827
1559.0
1628.418
1542.009
1570.531
1589.086
1558.487
1543.048
1570.861
1608.642
1625.303
1685.12
1627.82
1660.69
1650.014
1648.207
1721.741
1745.181
1732.099
1725.625
1740.747
1745.792
1704.457
1666.346
1641.024
1676.411
1613.211
1508.736
1569.481
1545.173
1616.594
1630.886
1635.93
1644.603
1593.874
1614.945
1683.813
1354.753
1619.33
1669.717
1728.129
1697.409
1686.61
1662.865
1647.767
1637.75
1670.731
1647.376
1661.741
1671.513
1655.792
1669.766
1645.348
1624.79
1695.039
1708.536
1674.518
1663.084
1671.061
1697.787
1644.359
1691.619
1711.92
1690.483
1669.619
1700.988
1727.286
1744.876
1685.194
1742.555
1724.648
1662.156
1733.308
1784.501
1697.421
1718.26
1744.595
1751.02
1664.489
1629.713
1467.547
1480.837
2149.974
2699.148
2495.024
2051.814
1818.63
1876.37
1834.436
1793.675
1731.488
1778.626
1748.76
1783.891
1798.036
1731.146
1742.372
1695.747
1848.374
1832.128
1815.809
1813.952
1804.217
1819.021
1836.757
1727.995
1852.551
1883.638
1863.081
1920.32
1938.899
1915.19
1914.811
1965.577
1960.495
1938.789
1914.432
1878.728
1845.222
1882.576
1884.359
1890.601
1878.984
1912.869
1887.474
1850.328
1849.656
1952.568
1943.748
1930.837
1932.413
1962.389
1934.392
1933.488
1930.007
1934.294
1971.049
1987.942
1979.221
1947.621
1960.336
1996.346
1986.44
1954.669
2019.286
2009.367
2008.012
2004.127
1989.005
2007.34
2012.433
2001.403
2033.419
2001.513
2053.427
2040.259
2036.24
2039.942
2047.881
2062.234
2042.629
2018.199
2062.661
2056.236
2065.056
2072.25
2026.847
2055.992
2058.582
1972.637
1857.938
1707.706
2202.56
2804.479
2773.416
2469.861
2242.784
2163.728
2121.587
2099.319
2106.367
2081.326
2077.918
2088.264
2098.708
2099.16
2079.469
2083.342
2081.424
2081.619
2085.956
2124.897
2103.423
2108.517
2097.413
2105.414
2119.156
2084.197
2180.768
2197.246
2209.046
2205.418
2181.758
2202.254
2224.022
2191.945
2150.829
2121.208
2107.209
2093.59
2075.866
2067.926
2046.025
2088.411
2069.734
2075.683
2053.537
2072.336
2094.64
2089.779
2088.167
2094.298
2084.197
2072.189
2084.539
2123.846
2125.483
2120.805
2122.979
2126.399
2114.368
2128.72
2141.961
2127.633
2140.691
2156.045
2159.966
2158.085
2169.042
2159.71
2150.768
2182.71
2188.207
2177.324
2202.914
2203.403
2217.67
2239.974
2228.407
2221.261
2227.222
2219.82
2244.079
2231.766
2238.643
2243.798
2246.204
2255.512
2254.828
2224.413
2048.578
1926.342
2047.307
2949.495
3175.937
2940.346
2598.875
2422.711
2307.768
2302.711
2307.096
2273.199
2275.276
2309.563
2300.903
2310.04
2300.646
2279.71
2318.236
2317.002
2324.832
2267.348
2381.497
2315.964
2354.759
2360.927
2387.458
2429.319
2424.311
2471.253
2480.659
2503.073
2490.858
2529.629
2530.056
2521.64
2513.212
2470.532
2460.162
2433.558
2420.402
2395.068
2393.285
2430.687
2414.808
2406.184
2412.682
2436.453
2440.398
2427.12
2433.973
2449.657
2458.562
2460.59
2452.149
2434.633
2454.03
2479.291
2495.268
2488.293
2484.458
2476.542
2480.866
2495.195
2505.431
2495.219
2499.409
2490.37
2501.473
2503.085
2527.198
2511.074
2503.415
2522.605
2539.987
2526.404
2558.358
2566.652
2570.146
2576.302
2563.135
2557.308
2575.557
2556.257
2577.438
2579.539
2566.152
2577.206
2576.962
2566.726
2431.909
2252.128
2234.917
3190.46
3696.748
3483.889
2973.803
2749.89
2658.973
2630.011
2611.237
2582.202
2607.56
2608.379
2588.297
2607.683
2614.218
2608.305
2604.372
2608.647
2613.875
2597.752
2611.298
2620.826
2615.879
2639.197
2635.997
2649.079
2665.459
2680.716
2698.55
2725.802
2729.124
2748.57
2736.319
2735.256
2729.161
2713.073
2689.108
2682.524
2683.965
2686.872
2686.848
2689.523
2667.573
2693.053
2685.126
2706.709
2696.925
2687.898
2696.364
2706.49
2701.628
2716.494
2727.768
2708.981
2727.756
2735.146
2733.253
2736.074
2746.384
2758.403
2753.42
2756.144
2764.487
2768.566
2768.383
2773.477
2767.992
2775.443
2766.783
2786.315
2805.468
2782.675
2783.237
2776.995
2784.177
2785.887
2772.084
2827.21
2815.521
2822.862
2827.65
2823.436
2820.187
2830.252
2834.979
2839.646
2831.754
2829.837
2847.451
2838.619
2840.732
2835.065
2732.422
2567.324
2409.409
3188.249
3851.206
3866.683
3327.525
3049.695
2918.102
2877.17
2865.114
2858.066
2856.221
2843.371
2847.255
2843.896
2867.117
2852.41
2861.865
2863.355
2834.32
2856.636
2842.919
2862.658
2860.741
2838.668
2875.716
2883.839
2869.682
2905.521
2915.195
2911.824
2915.757
2918.066
2928.253
2934.788
2924.515
2908.782
2881.738
2882.618
2875.374
2878.196
2892.084
2875.643
2883.705
2868.009
2866.543
2888.774
2878.66
2893.367
2890.57
2888.64
2884.523
2893.66
2893.868
2899.096
2891.681
2918.163
2899.474
2911.983
2930.904
2904.336
2922.964
2934.825
2923.88
2933.823
2928.253
2914.743
2949.287
2923.22
2946.258
2951.938
2944.914
2940.297
2927.19
2969.075
2963.066
2949.983
2966.046
2950.386
2947.638
2967.671
2978.835
2999.735
2989.817
2989.01
2982.488
2973.632
2987.728
2969.943
2989.609
3007.003
2988.595
2998.587
2991.05
3009.971
2998.587
2919.886
2814.446
2594.429
3141.869
3869.382
3963.499
3502.822
3247.419
3093.827
3047.948
3017.251
2999.515
3016.897
3016.751
3007.064
2998.416
3013.233
3009.275
3022.357
3016.47
3003.791
3024.361
3023.396
3005.525
3017.936
3033.803
3035.134
3055.032
3062.203
3073.551
3105.639
3090.896
3114.813
3115.362
3120.322
3125.122
3112.626
3092.557
3084.764
3064.511
3055.704
3032.447
3027.402
3052.504
3033.522
3043.734
3040.692
3033.986
3044.051
3060.92
3064.67
3064.084
3067.418
3077.484
3074.857
3079.89
3088.453
3083.567
3099.556
3089.418
3109.646
3113.261
3101.401
3106.946
3110.672
3107.997
3124.89
3114.251
3123.779
3122.911
3115.485
3119.699
3110.77
3118.172
3115.326
3106.922
3143.689
3146.462
3138.803
3156.93
3140.305
3150.639
3143.493
3163.074
3173.335
3162.292
3166.897
3177.354
3171.295
3166.165
3166.665
3176.401
3122.105
2991.392
2824.365
3048.901
3904.134
4002.635
3703.979
3462.391
3290.904
3220.497
3193.978
3178.306
3185.281
3176.73
3184.976
3202.541
3200.794
3184.316
3194.076
3199.108
3206.596
3194.638
3194.332
3212.96
3219.288
3230.806
3238.465
3246.075
3261.539
3289.206
3311.474
3322.736
3323.982
3347.777
3341.596
3343.587
3356.462
3329.882
3306.429
3257.557
3260.794
3239.833
3229.45
3217.516
3216.747
3221.975
3231.307
3220.302
3233.469
3237.561
3251.584
3246.405
3259.108
3259.341
3267.073
3268.795
3271.519
3273.339
3272.924
3259.047
3268.502
3286.58
3279.483
3289.67
3272.496
3281.303
3299.552
3285.811
3280.155
3288.571
3275.135
3286.055
3287.105
3285.285
3296.413
3278.2
3321.307
3329.833
3307.345
3328.074
3318.461
3310.192
3324.056
3311.633
3314.54
3321.539
3306.112
3320.354
3344.845
3330.126
3279.703
3118.428
2946.783
3242.056
4142.497
4385.686
4000.962
3625.925
3416.254
3367.211
3358.917
3326.804
3328.38
3329.675
3337.04
3329.137
3324.923
3336.649
3343.551
3327.512
3341.328
3334.035
3333.632
3334.781
3342.366
3332.789
3345.957
3372.94
3373.453
3381.552
3404.552
3413.689
3417.293
3430.46
3423.119
3430.033
3433.514
3407.276
3385.717
3375.237
3373.172
3360.896
3362.154
3363.302
3340.705
3342.793
3361.36
3370.131
3359.723
3361.446
3373.453
3385.876
3386.633
3380.428
3387.281
3384.398
3398.616
3412.016
3401.352
3396.991
3409.304
3418.685
3413.115
3411.417
3410.245
3418.013
3426.198
3419.968
3415.204
3430.021
3414.19
3433.38
3430.167
3434.601
3440.721
3429.337
3415.766
3423.742
3425.746
3431.707
3436.446
3448.246
3466.727
3458.726
3458.982
3455.306
3465.432
3452.301
3468.205
3458.066
3474.324
3470.135
3449.736
3469.842
3457.492
3471.173
3339.276
3189.312
3081.112
3818.482
4454.065
4433.422
3903.315
3667.309
3539.064
3509.321
3486.54
3481.483
3467.997
3489.019
3490.949
3472.48
3473.408
3482.301
3486.136
3484.426
3491.572
3473.384
3471.43
3500.465
3497.545
3495.31
3510.884
3502.48
3509.711
3531.723
3552.757
3556.092
3586.531
3570.066
3579.716
3573.461
3564.447
3554.284
3541.104
3538.575
3528.217
3494.211
3494.687
3521.45
3516.796
3529.475
3518.824
3512.289
3510.579
3517.773
3524.15
3523.038
3527.435
3531.552
3542.851
3552.061
3550.436
3560.501
3553.6
3553.405
3558.742
3573.046
3578.592
3571.141
3574.646
3563.213
3591.32
3585.615
3586.666
3582.305
3576.613
3600.603
3571.373
3593.897
3605.05
3601.263
3598.221
3598.698
3608.641
3602.203
3607.199
3602.094
3593.262
3606.686
3614.626
3643.979
3643.319
3624.691
3646.263
3636.21
3632.484
3643.661
3634.72
3629.577
3640.766
3641.609
3643.881
3644.26
3649.39
3566.927
3439.39
3243.876
3735.774
4477.884
4531.936
4125.677
3872.631
3723.51
3680.489
3670.033
3646.593
3656.316
3664.512
3650.294
3672.586
3652.297
3642.574
3669.789
3674.724
3665.013
3668.213
3671.133
3673.148
3670.949
3674.687
3690.457
3689.944
3707.778
3726.1
3739.024
3745.253
3740.331
3773.14
3776.878
3774.679
3765.347
3742.774
3709.182
3719.712
3703.6
3688.221
3660.127
3686.035
3684.349
3684.691
3700.192
3696.161
3692.13
3699.887
3708.73
3709.415
3717.305
3733.796
3720.054
3734.968
3731.988
3730.4
3727.823
3750.286
3728.849
3745.632
3751.642
3727.493
3748.344
3745.363
3742.309
3751.129
3761.169
3751.654
3738.767
3768.022
3748.026
3764.052
3770.099
3755.221
3770.88
3777.757
3790.803
3786.051
3800.514
3804.667
3779.406
3789.484
3802.297
3790.473
3787.224
3802.456
3792.085
3792.122
3799.586
3781.41
3731.438
3602.765
3430.888
3736.019
4520.026
4542.368
4284.204
4055.917
3886.715
3821.353
3807.44
3803.226
3788.763
3790.424
3783.73
3779.932
3799.659
3803.458
3802.981
3794.59
3784.757
3806.243
3807.086
3817.994
3821.499
3817.639
3833.568
3842.863
3872.118
3881.108
3904.256
3933.853
3931.41
3948.572
3947.338
3928.185
3934.598
3910.302
3884.858
3874.659
3829.61
3802.847
3808.686
3791.243
3797.546
3786.894
3790.363
3779.822
3792.623
3814.879
3809.883
3805.058
3834.972
3825.213
3827.338
3821.243
3825.03
3822.77
3814.292
3844.708
3834.716
3833.348
3850.791
3829.83
3843.792
3847.297
3830.648
3834.728
3839.443
3814.989
3838.832
3840.738
3866.011
3861.809
3858.645
3858.816
3864.545
3862.945
3857.912
3868.991
3880.852
3870.75
3858.193
3865.302
3856.654
3874.329
3866.194
3847.7
3690.506
3531.662
3644.956
4558.858
4813.04
4541.989
4179.545
3995.111
3906.503
3874.549
3875.135
3845.746
3846.735
3854.651
3844.598
3849.972
3857.705
3860.331
3865.889
3858.279
3855.787
3855.848
3853.771
3863.006
3876.137
3877.419
3883.783
3893.372
3909.105
3929.468
3952.004
3946.691
3952.053
3976.532
3973.332
3971.096
3941.17
3923.788
3906.052
3881.951
3861.564
3858.682
3856.886
3845.343
3863.372
3861.283
3867.208
3852.379
3872.338
3878.433
3871.202
3882.0
3872.753
3869.162
3904.439
3890.868
3901.642
3891.931
3894.74
3884.578
3885.03
3892.407
3897.501
3892.725
3884.761
3882.33
3866.939
3888.315
3880.925
3868.747
3843.669
3863.446
3861.503
3862.933
3877.823
3874.464
3869.187
3876.088
3864.276
3852.183
3847.273
3847.615
3860.771
3855.249
3859.586
3847.493
3834.521
3838.918
3847.664
3840.066
3723.645
3549.178
3480.627
4366.704
4919.273
4767.099
4253.642
3999.606
3902.094
3875.001
3853.857
3850.498
3849.826
3860.013
3851.841
3862.322
3859.134
3856.055
3858.083
3846.906
3865.974
3852.977
3859.867
3876.381
3868.1
3868.124
3879.655
3889.635
3883.979
3920.209
3926.561
3953.189
3951.626
3963.047
3953.043
3951.076
3948.755
3913.014
3910.51
3873.682
3886.312
3894.191
3886.385
3893.592
3897.489
3890.209
3890.612
3889.635
3895.889
3905.966
3896.219
3913.075
3897.66
3898.002
3929.064
3928.6
3926.634
3918.218
3918.596
3948.609
3939.985
3939.264
3934.231
3941.048
3947.912
3942.806
3950.074
3958.552
3936.528
3956.328
3976.043
3954.85
3966.381
3953.8
3950.624
3954.484
3930.64
3956.915
3965.38
3980.16
3991.495
3984.606
3999.081
3989.407
3999.643
3992.106
3981.088
3998.543
4003.087
4005.237
4011.687
3994.903
4004.419
4001.048
3907.627
3786.992
3578.763
4140.958
4909.893
5016.896
4530.641
4229.517
4086.369
4030.351
4005.237
4000.864
4005.433
4010.832
4010.135
4002.489
4017.269
4005.787
4001.329
4010.746
4007.961
4005.225
4004.7
4014.899
4009.427
4016.365
4030.791
4039.073
4037.167
4052.302
4069.305
4079.553
4085.062
4102.053
4094.443
4096.043
4091.671
4078.918
4049.431
4053.67
4052.143
4027.065
4048.393
4043.165
4030.278
4043.031
4022.851
4050.201
4052.082
4042.041
4046.414
4045.693
4053.181
4063.405
4072.334
4070.123
4065.274
4087.908
4086.699
4075.583
4096.52
4087.542
4093.283
4103.849
4103.507
4092.868
4106.011
4106.939
4106.561
4104.973
4101.846
4112.167
4111.019
4114.525
4117.396
4130.392
4131.431
4124.382
4110.311
4123.894
4114.647
4120.962
4121.842
4126.496
4149.203
4148.336
4156.96
4160.93
4137.379
4139.065
4147.737
4146.858
4157.302
4157.46
4156.117
4147.921
4157.241
4142.033
4137.917
3991.447
3817.346
3983.446
4832.657
5166.835
4848.524
4437.673
4258.65
4200.885
4172.155
4184.431
4154.382
4148.153
4160.417
4154.725
4158.865
4151.817
4156.605
4156.972
4136.939
4154.358
4150.107
4146.259
4155.812
4165.193
4158.67
4162.652
4180.242
4195.315
4204.733
4228.466
4231.508
4221.052
4239.619
4242.66
4235.759
4222.054
4194.899
4175.649
4164.704
4150.107
4146.772
4148.482
4139.7
4132.847
4133.031
4138.674
4148.214
4139.248
4148.703
4135.009
4155.14
4144.195
4146.504
4172.595
4155.75
4156.948
4145.673
4173.902
4169.504
4171.105
4161.504
4160.869
4168.344
4152.135
4163.177
4163.703
4162.286
4151.61
4151.194
4169.773
4160.404
4173.597
4160.881
4162.884
4166.146
4158.071
4173.56
4163.935
4156.654
4157.729
4154.529
4166.891
4157.009
4168.576
4178.874
4180.559
4176.125
4166.109
4175.93
4166.28
4172.937
4182.611
4167.819
4178.092
4171.715
4167.294
4174.33
4165.754
4043.58
3916.447
3813.669
4469.529
4968.463
4857.966
4520.234
4343.874
4216.398
4183.076
4162.31
4148.507
4157.925
4161.357
4168.002
4159.195
4164.472
4151.194
4169.651
4175.954
4173.646
4154.211
4178.703
4181.854
4190.233
4195.388
4199.822
4225.73
4232.033
4245.226
4254.069
4279.232
4291.129
4289.407
4296.614
4281.321
4287.331
4262.412
4230.03
4197.086
4191.565
4179.814
4151.182
4149.203
4153.808
4164.154
4155.458
4182.477
4185.03
4180.437
4200.995
4188.279
4202.277
4198.149
4211.708
4201.251
4207.188
4216.997
4213.308
4201.618
4207.017
4198.479
4205.881
4223.165
4204.855
4223.568
4210.938
4209.68
4221.382
4195.364
4214.15
4214.309
4209.436
4210.315
4217.705
4237.554
4250.734
4235.576
4225.804
4240.168
4238.581
4234.684
4240.339
4240.938
4242.013
4247.876
4238.8
4245.262
4240.694
4217.607
4137.453
4039.354
3868.1
4404.973
5006.489
4893.793
4647.075
4463.202
4334.163
4274.786
4250.93
4264.892
4258.405
4247.607
4234.22
4258.674
4280.71
4262.546
4270.901
4267.701
4261.789
4283.91
4290.665
4294.562
4305.165
4304.822
4329.9
4345.84
4359.692
4378.503
4408.552
4431.467
4443.157
4444.855
4445.173
4451.5
4430.417
4408.674
4357.909
4345.278
4327.726
4281.357
4293.108
4293.365
4288.076
4286.561
4306.007
4304.92
4292.18
4302.184
4321.533
4326.223
4327.945
4342.127
4316.561
4353.878
4350.03
4342.872
4354.989
4332.282
4337.058
4347.624
4356.248
4357.53
4351.239
4361.354
4348.748
4331.048
4332.783
4345.547
4377.001
4360.144
4362.453
4387.372
4377.16
4360.694
4375.168
4368.719
4377.734
4360.621
4383.133
4374.888
4376.195
4395.629
4376.646
4348.002
4248.304
4110.091
4034.431
4758.793
5237.67
5068.785
4731.48
4560.458
4435.291
4416.174
4395.201
4380.238
4397.107
4381.716
4397.278
4376.219
4387.872
4391.561
4397.546
4399.586
4396.752
4397.033
4402.005
4425.714
4429.879
4451.122
4451.818
4458.401
4484.041
4508.85
4537.53
4535.906
4571.83
4572.979
4560.25
4559.908
4526.524
4508.618
4472.058
4465.987
4420.303
4418.593
4402.066
4416.394
4423.259
4399.696
4416.749
4438.333
4423.137
4430.185
4428.756
4439.798
4425.861
4449.985
4449.961
4448.996
4459.477
4447.164
4451.683
4453.271
4466.073
4463.385
4457.29
4454.444
4468.455
4456.228
4465.963
4468.968
4467.636
4469.75
4473.353
4479.485
4500.885
4496.097
4488.756
4485.018
4466.952
4490.527
4496.524
4485.849
4504.269
4493.593
4486.875
4499.529
4495.572
4491.529
4383.829
4244.944
4061.316
4770.165
5444.091
5435.87
4983.048
4720.022
4572.013
4529.811
4521.834
4497.685
4500.958
4497.294
4497.587
4502.645
4503.23
4502.375
4492.225
4506.345
4503.157
4500.702
4505.723
4508.667
4518.072
4513.796
4533.194
4525.169
4553.715
4586.439
4602.417
4606.716
4616.818
4624.086
4635.922
4635.702
4614.436
4594.22
4573.345
4556.183
4543.442
4523.312
4511.354
4499.419
4487.412
4539.143
4539.839
4547.828
4544.493
4525.242
4539.888
4531.557
4528.662
4542.196
4529.835
4562.535
4546.899
4568.74
4571.867
4561.167
4562.217
4574.371
4563.304
4564.746
4580.197
4582.347
4568.789
4585.89
4587.086
4589.261
4590.935
4595.735
4572.417
4554.424
4571.354
4595.784
4588.21
4599.986
4611.003
4608.011
4610.051
4605.006
4606.912
4598.593
4604.395
4612.164
4617.148
4612.42
4612.164
4619.029
4624.599
4620.763
4493.153
4330.901
4158.658
4965.055
5683.493
5677.373
5124.266
4826.403
4685.796
4646.769
4641.834
4610.771
4617.417
4602.783
4617.282
4614.802
4611.407
4614.937
4617.807
4624.086
4625.039
4613.557
4623.414
4613.19
4622.718
4630.755
4629.583
4645.12
4643.251
4650.714
4681.35
4693.882
4697.791
4712.217
4715.32
4704.045
4687.054
4680.324
4669.709
4644.241
4642.946
4613.691
4630.841
4656.211
4639.403
4633.21
4633.296
4625.014
4644.143
4644.436
4643.214
4633.503
4645.816
4660.022
4655.43
4668.268
4666.826
4660.597
4667.767
4664.823
4675.413
4680.959
4688.019
4698.243
4689.229
4682.07
4700.857
4698.67
4703.947
4699.025
4699.746
4703.215
4695.495
4716.309
4724.151
4711.692
4717.958
4711.203
4700.845
4737.979
4737.38
4717.641
4714.807
4699.831
4720.022
4707.661
4706.208
4742.742
4734.351
4743.231
4749.668
4729.965
4732.323
4727.058
4745.344
4729.746
4732.555
4737.636
4741.13
4744.062
4746.627
4738.198
4726.533
4553.141
4388.629
4470.836
5363.912
5868.354
5631.518
5106.029
4873.663
4790.87
4738.785
4747.25
4734.106
4741.802
4746.639
4736.378
4740.69
4730.039
4731.664
4731.15
4725.031
4730.039
4724.884
4724.408
4724.139
4726.02
4745.1
4730.906
4747.176
4749.705
4768.992
4777.665
4789.392
4797.05
4788.219
4781.0
4796.171
4794.253
4769.408
4759.99
4756.032
4741.777
4731.321
4729.379
4750.829
4721.415
4749.607
4743.805
4743.414
4750.12
4744.526
4739.053
4743.365
4755.629
4762.714
4761.272
4744.184
4779.241
4777.421
4776.651
4787.303
4766.684
4778.19
4793.74
4805.821
4790.649
4790.039
4783.064
4788.5
4813.394
4801.936
4794.009
4794.058
4802.364
4797.429
4799.762
4809.583
4803.622
4810.975
4812.905
4818.585
4818.634
4820.1
4822.58
4815.153
4829.359
4828.846
4813.98
4831.692
4836.896
4828.833
4822.176
4827.233
4836.639
4851.603
4852.445
4851.004
4835.186
4853.752
4854.498
4849.196
4842.221
4847.022
4862.743
4870.145
4850.735
4856.953
4835.173
4764.302
4618.064
4435.975
5097.735
5833.151
5892.503
5362.409
5069.738
4932.661
4866.383
4870.609
4856.904
4855.536
4856.537
4842.856
4853.911
4842.343
4841.476
4854.852
4855.499
4845.471
4855.694
4851.26
4852.531
4854.974
4853.129
4862.193
4862.327
4879.147
4888.199
4899.693
4905.128
4915.401
4933.956
4925.772
4925.662
4915.475
4904.249
4903.443
4897.922
4880.906
4872.649
4858.504
4866.48
4873.736
4878.158
4857.917
4870.353
4871.098
4877.522
4872.478
4876.204
4884.705
4875.922
4884.253
4893.878
4907.645
4907.437
4907.352
4901.818
4915.915
4927.873
4924.05
4916.794
4917.869
4925.577
4927.567
4918.919
4922.474
4940.063
4939.16
4932.026
4942.458
4928.85
4941.358
4952.181
4938.146
4932.49
4948.736
4954.379
4948.895
4949.042
4948.724
4969.477
4962.478
4958.105
4945.572
4959.094
4949.726
4939.111
4951.277
4963.919
4969.795
4980.849
4982.657
4988.044
4981.692
4976.806
4980.654
4972.897
4977.356
4963.944
4979.481
4977.942
4959.094
4977.075
4963.895
4829.286
4696.777
4640.307
5440.158
5954.275
5819.385
5347.36
5113.712
5012.413
4998.341
4968.866
4966.692
4978.467
4967.278
4984.416
4962.001
4960.353
4971.847
4967.657
4978.089
4969.734
4963.577
4972.409
4976.049
4967.12
4971.334
4989.595
4995.422
4989.864
4990.121
5034.571
5031.078
5044.221
5040.898
5042.462
5045.357
5026.118
5020.658
4998.207
4989.253
4984.477
4971.945
4969.221
4957.788
4965.69
4970.088
4958.105
4961.843
4955.992
4966.448
4979.933
4977.905
4983.781
4996.545
4988.813
4997.572
4984.306
4999.575
5018.215
5002.335
4998.109
5027.926
5024.323
5025.556
5008.406
5014.123
5028.646
5027.987
5025.85
5022.087
5035.108
5027.438
5022.209
5016.542
5044.331
5032.983
5033.594
5029.221
5028.756
5023.248
5006.66
5047.531
5040.568
5044.001
5042.059
5059.416
5048.032
5054.249
5047.506
5065.133
5058.341
5057.694
5065.023
5048.129
5064.559
5064.62
5055.727
5050.401
4945.06
4857.185
4712.352
5210.015
5797.483
5744.897
5469.4
5265.923
5134.771
5075.32
5053.688
5060.76
5057.12
5037.93
5067.161
5061.041
5053.871
5045.918
5051.464
5068.871
5057.572
5067.747
5062.433
5078.24
5080.646
5085.728
5100.141
5106.419
5099.274
5142.209
5158.724
5170.646
5180.625
5180.259
5178.256
5182.079
5183.887
5144.995
5137.274
5098.382
5074.722
5056.851
5050.792
5027.865
5026.729
5036.599
5032.445
5031.542
5041.753
5030.002
5044.819
5045.088
5054.604
5052.246
5038.614
5041.143
5032.445
5044.99
5044.379
5032.897
5029.807
5030.039
5028.903
5039.994
5020.829
5033.496
5012.242
4997.926
5011.619
5010.166
4993.785
4994.445
4998.903
4999.807
5010.85
5009.823
5013.084
5011.509
4996.106
5001.249
4993.871
4992.332
4994.322
4999.477
4975.584
4975.133
4981.998
4979.884
4959.4
4791.065
4707.722
4657.408
5317.446
5753.973
5601.127
5302.324
5126.99
5002.788
4965.08
4955.564
4942.934
4939.672
4924.941
4951.545
4945.206
4928.142
4926.847
4937.608
4921.643
4939.147
4933.187
4931.098
4932.539
4942.519
4959.498
4956.383
4974.51
4991.134
4996.484
5018.728
5040.251
5048.142
5062.018
5049.644
5028.073
5021.855
4999.795
4972.213
4913.948
4910.149
4883.838
4882.25
4894.245
4880.711
4873.663
4882.079
4870.682
4899.644
4881.761
4897.165
4917.881
4898.276
4907.046
4902.844
4905.8
4909.624
4886.672
4898.398
4901.537
4887.783
4904.64
4903.37
4891.387
4905.128
4897.409
4893.695
4881.493
4871.146
4877.816
4885.438
4877.779
4906.9
4908.194
4903.553
4900.426
4898.325
4889.53
4897.604
4908.463
4892.205
4896.615
4898.96
4884.925
4894.66
4892.914
4862.547
4712.205
4559.163
4646.207
5569.49
5919.438
5646.457
5226.31
5019.4
4933.052
4895.332
4886.476
4880.186
4871.317
4864.025
4856.574
4864.44
4866.737
4847.938
4874.616
4866.603
4871.171
4869.498
4867.262
4870.939
4866.077
4865.979
4877.388
4892.975
4902.539
4916.208
4937.779
4937.706
4944.827
4968.512
4964.652
4956.981
4951.13
4918.162
4888.932
4875.483
4858.333
4856.721
4845.397
4854.961
4852.714
4845.654
4853.544
4854.167
4852.384
4845.996
4851.285
4851.505
4848.023
4870.719
4877.51
4863.756
4874.665
4873.993
4881.346
4886.806
4869.033
4879.929
4874.493
4879.941
4883.117
4878.878
4864.489
4864.037
4856.77
4858.455
4861.985
4866.444
4889.994
4886.574
4890.092
4870.267
4867.287
4895.161
4881.981
4872.539
4884.559
4876.387
4886.684
4887.063
4880.259
4888.052
4851.883
4677.685
4498.162
4744.636
5685.374
5992.239
5649.352
5187.881
4981.436
4924.245
4888.663
4871.794
4868.948
4855.694
4859.493
4853.96
4856.146
4851.834
4859.408
4863.537
4856.757
4863.842
4854.559
4856.488
4849.941
4849.819
4855.865
4870.536
4859.896
4870.658
4900.059
4911.847
4929.253
4927.812
4923.329
4935.739
4911.285
4899.522
4876.143
4869.595
4861.704
4844.603
4846.252
4836.639
4850.442
4850.259
4845.922
4842.111
4828.821
4857.966
4864.037
4868.63
4871.953
4868.532
4864.782
4870.194
4866.346
4878.988
4892.437
4886.855
4881.517
4885.694
4875.495
4894.55
4895.613
4909.526
4942.983
4929.791
4923.756
4908.72
4899.864
4917.368
4912.812
4920.495
4923.255
4924.465
4932.502
4924.978
4928.875
4914.839
4876.643
4728.646
4493.166
4983.989
5853.318
6052.129
5540.235
5176.314
5005.609
4962.014
4932.832
4932.393
4905.458
4903.748
4932.393
4926.749
4910.43
4919.298
4919.518
4922.083
4923.354
4914.327
4915.572
4901.208
4916.696
4916.94
4932.099
4930.316
4918.101
4960.658
4974.681
4981.753
4991.122
4997.266
5003.691
4990.89
4973.557
4959.033
4935.41
4922.278
4921.692
4914.791
4928.129
4907.034
4913.887
4911.089
4918.638
4915.121
4929.51
4918.699
4930.988
4926.395
4953.231
4947.686
4953.268
4945.89
4959.595
4973.594
4970.809
4957.958
4977.734
4962.844
4951.533
4966.851
4951.252
4963.528
4982.889
4980.41
5004.485
4984.832
4991.049
4988.728
4988.533
4987.592
4987.433
5005.365
5004.595
4985.943
4990.951
5008.357
5008.028
5015.967
4974.29
4826.317
4636.484
4886.256
5801.88
6079.186
5692.434
5289.925
5103.012
5053.651
5018.044
5015.173
5007.747
5004.156
5008.577
5008.919
5013.072
5008.944
4997.669
5003.96
5001.175
5007.612
5021.733
5006.379
5020.45
5016.114
5013.928
5031.493
5026.509
5062.018
5064.62
5085.104
5102.45
5093.435
5087.303
5095.401
5081.965
5062.177
5041.912
5042.865
5028.036
4998.292
5003.374
5029.184
5017.824
5039.823
5017.836
5020.841
5029.001
5043.793
5057.987
5051.183
5058.048
5053.418
5057.279
5077.678
5071.802
5073.622
5075.735
5087.755
5081.11
5087.779
5088.696
5100.263
5096.024
5099.86
5098.846
5096.281
5103.219
5103.977
5112.014
5109.889
5090.015
5093.289
5092.213
5114.762
5109.168
5088.769
5132.694
5136.285
5125.829
5129.835
5117.157
5124.046
5112.991
5140.206
5137.335
5134.404
5133.451
5134.49
5097.723
4960.169
4827.392
4934.09
5803.725
5949.816
5737.031
5440.854
5265.813
5185.341
5147.792
5137.36
5162.572
5143.407
5140.5
5145.117
5154.669
5147.902
5157.124
5152.519
5140.182
5160.373
5158.235
5159.689
5171.245
5191.069
5198.228
5213.301
5224.307
5241.163
5264.763
5268.513
5289.229
5294.127
5295.068
5280.715
5268.977
5270.394
5250.911
5208.402
5200.768
5170.182
5159.115
5150.833
5147.89
5146.473
5165.907
5171.281
5171.917
5158.968
5178.977
5175.068
5186.672
5213.325
5189.982
5209.979
5193.635
5173.468
5209.233
5218.431
5202.601
5219.958
5216.599
5218.663
5221.974
5219.714
5212.775
5205.434
5217.674
5218.113
5196.163
5220.654
5213.472
5237.694
5234.591
5230.047
5244.962
5244.425
5232.503
5241.664
5246.135
5253.879
5261.782
5263.395
5262.576
5257.543
5256.554
5247.967
5172.002
5051.696
4863.585
5378.02
6033.709
5992.142
5714.739
5482.581
5355.349
5301.603
5281.18
5287.813
5278.407
5281.534
5278.602
5259.302
5280.825
5293.504
5280.837
5285.345
5293.346
5301.664
5302.678
5325.337
5331.566
5330.724
5337.087
5345.821
5376.2
5410.671
5417.658
5442.442
5446.986
5451.774
5466.457
5459.983
5443.285
5412.417
5383.712
5367.149
5345.271
5330.003
5330.992
5331.798
5316.029
5302.861
5323.285
5341.375
5352.295
5351.379
5357.877
5349.119
5369.494
5368.236
5367.393
5356.693
5354.934
5369.897
5380.854
5386.668
5375.772
5366.624
5380.659
5387.682
5382.698
5395.598
5387.572
5380.891
5393.667
5387.89
5400.105
5400.972
5396.575
5391.212
5375.98
5400.227
5404.087
5392.898
5405.882
5421.86
5430.887
5420.736
5416.827
5439.792
5427.527
5420.309
5433.586
5409.51
5427.613
5430.52
5418.439
5297.658
5157.039
4963.382
5697.076
6478.567
6499.125
5947.557
5654.983
5501.196
5455.988
5444.787
5431.363
5419.82
5423.069
5414.677
5423.191
5428.566
5424.12
5415.447
5433.098
5436.774
5419.319
5417.511
5417.731
5415.386
5416.216
5434.82
5452.397
5452.983
5462.609
5483.326
5497.947
5488.993
5491.913
5505.899
5530.964
5521.033
5470.5
5453.521
5441.453
5429.494
5434.111
5425.512
5424.901
5414.824
5442.173
5436.652
5431.961
5419.294
5423.362
5430.569
5433.928
5414.604
5419.759
5428.993
5433.024
5453.826
5449.478
5433.525
5454.926
5449.722
5457.833
5455.121
5461.314
5465.088
5473.272
5467.263
5475.276
5466.273
5458.615
5455.744
5470.793
5475.618
5472.295
5485.927
5469.767
5481.432
5493.537
5478.586
5475.691
5475.618
5483.716
5491.717
5488.199
5493.623
5487.906
5478.977
5489.726
5488.102
5486.648
5501.257
5494.014
5493.537
5522.707
5502.588
5509.197
5514.694
5498.79
5503.297
5505.997
5521.204
5509.893
5502.149
5503.126
5402.56
5248.957
5034.119
5792.854
6539.654
6613.726
6050.077
5737.715
5571.762
5550.557
5504.677
5492.572
5490.544
5486.611
5506.338
5491.229
5496.42
5487.491
5483.35
5464.612
5475.557
5472.149
5471.367
5446.265
5451.627
5463.989
5455.964
5453.741
5449.722
5446.937
5453.24
5468.154
5491.729
5488.272
5481.286
5464.966
5452.397
5443.725
5425.903
5401.668
5395.536
5369.005
5393.167
5389.343
5367.796
5380.304
5354.995
5350.365
5321.941
5330.21
5344.563
5339.519
5325.104
5319.889
5292.026
5314.893
5296.155
5282.181
5302.263
5297.035
5299.478
5281.082
5279.897
5284.697
5249.86
5259.388
5249.433
5232.283
5244.864
5226.798
5205.874
5199.84
5179.685
5175.129
5157.295
5150.674
5154.278
5148.134
5137.531
5115.923
5108.02
5098.541
5090.173
5078.704
5067.161
5067.515
5060.149
5045.088
5026.973
5017.238
5008.382
5012.095
4990.609
4952.059
4964.616
4944.778
4969.489
4934.542
4927.971
4957.567
4929.449
4911.089
4904.762
4887.282
4892.474
4872.722
4856.757
4844.334
4826.904
4815.031
4799.261
4736.574
4585.438
4352.229
4813.04
5629.258
5817.785
5343.097
4958.838
4781.244
4724.652
4686.419
4664.396
4641.358
4623.878
4613.654
4603.613
4601.378
4579.562
4590.14
4562.632
4540.706
4555.291
4523.959
4522.738
4527.196
4501.875
4492.542
4497.978
4488.121
4488.951
4489.489
4491.199
4491.846
4483.125
4487.864
4472.876
4447.567
4432.579
4406.646
4399.22
4366.826
4349.249
4351.569
4330.034
4332.111
4320.567
4303.723
4318.417
4310.233
4289.542
4279.012
4280.893
4285.816
4263.89
4269.228
4269.998
4252.505
4262.143
4260.152
4261.435
4269.985
4223.189
4233.694
4238.837
4213.112
4218.963
4204.525
4194.936
4206.553
4199.48
4176.357
4175.686
4181.121
4168.271
4144.745
4150.132
4148.642
4133.165
4146.455
4127.888
4106.988
4111.092
4115.063
4129.415
4108.918
4091.829
4080.213
4058.153
4077.062
4058.947
4075.217
4067.424
4045.4
4079.395
4063.649
4046.976
4038.987
4055.966
4040.942
4039.83
4037.827
4044.729
4028.446
4038.877
4030.657
3919.048
3803.238
3637.248
4212.709
4825.536
4747.409
4421.585
4220.722
4098.621
4055.135
4008.108
4003.82
4009.427
3995.294
4003.246
3993.499
4009.879
4008.89
3996.76
3991.996
3994.916
4008.951
4009.219
3994.134
4016.438
4017.697
4010.868
4039.39
4039.562
4069.916
4079.846
4090.522
4096.374
4112.204
4112.412
4123.442
4106.854
4084.708
4058.385
4024.916
4005.555
3969.13
3953.592
3947.46
3941.304
3956.402
3939.997
3958.649
3951.662
3957.135
3965.258
3952.359
3962.839
3969.032
3975.262
3964.696
3966.235
3956.707
3952.75
3949.671
3945.579
3946.41
3950.856
3965.929
3940.706
3940.498
3942.33
3950.746
3947.375
3914.944
3933.144
3951.565
3945.726
3953.177
3935.233
3914.712
3919.134
3930.274
3934.476
3945.75
3938.8
3947.265
3949.745
3939.57
3937.53
3961.092
3964.903
3941.585
3966.736
3948.951
3949.854
3948.144
3963.755
3921.87
3770.306
3616.165
3740.257
4604.75
4783.748
4566.492
4271.146
4101.003
4006.08
3978.23
3965.27
3953.678
3965.807
3958.991
3967.566
3964.964
3954.533
3957.012
3963.315
3962.338
3984.264
3973.979
3972.44
3994.097
3987.196
4000.388
4001.121
4028.519
4062.538
4059.179
4083.926
4094.431
4098.34
4111.618
4110.482
4118.959
4093.271
4077.746
4055.258
4019.553
3995.698
3987.025
3966.589
3964.879
3985.73
3984.509
3980.184
3987.196
3998.812
4010.722
4006.605
3999.02
4013.91
4013.312
4007.216
3999.228
4011.345
4031.06
4029.179
4043.898
4040.184
4039.879
4036.801
4046.243
4049.871
4025.807
4037.815
4058.482
4060.4
4058.678
4052.656
4056.443
4052.167
4063.71
4061.157
4059.448
4056.455
4058.568
4076.549
4092.232
4091.866
4091.035
4093.625
4084.855
4089.032
4100.075
4095.982
4085.698
4087.774
4093.527
4101.65
4097.961
4092.574
4028.299
3874.744
3659.455
4182.868
5043.879
5178.256
4709.114
4395.421
4193.837
4141.715
4112.314
4097.888
4092.025
4084.293
4091.402
4090.022
4089.386
4086.186
4086.003
4101.162
4094.688
4077.99
4081.007
4098.829
4097.729
4120.107
4102.31
4098.768
4121.17
4130.514
4146.577
4167.025
4187.033
4195.889
4205.637
4204.171
4196.817
4183.979
4165.962
4143.987
4148.08
4117.212
4124.639
4132.505
4129.354
4123.784
4123.356
4115.014
4124.102
4137.55
4124.969
4131.162
4115.661
4132.371
4126.166
4151.243
4167.88
4144.464
4151.072
4171.581
4172.583
4170.689
4150.278
4173.365
4185.299
4175.075
4178.861
4156.019
4175.221
4195.681
4180.376
4184.944
4174.977
4194.436
4200.995
4183.259
4195.291
4192.505
4194.399
4206.418
4181.988
4182.929
4197.965
4190.893
4214.578
4205.319
4209.008
4219.892
4207.298
4208.177
4234.806
4249.171
4234.77
4220.881
4241.878
4241.341
4222.322
4238.764
4172.363
4021.569
3826.202
4247.632
5120.821
5384.506
4917.429
4512.575
4325.93
4266.235
4236.296
4227.733
4246.093
4236.418
4234.11
4224.875
4215.653
4230.177
4234.647
4241.964
4232.583
4233.804
4228.882
4224.667
4244.224
4247.693
4235.466
4242.428
4251.382
4272.88
4280.93
4280.881
4303.027
4311.431
4303.186
4305.421
4301.305
4299.985
4284.655
4277.229
4275.934
4271.878
4256.61
4271.524
4256.756
4279.134
4271.292
4273.369
4290.433
4268.312
4271.048
4284.985
4289.15
4296.871
4275.372
4287.184
4296.785
4286.708
4310.429
4308.927
4298.397
4311.382
4316.598
4321.484
4325.429
4328.177
4338.023
4329.912
4336.288
4329.692
4324.501
4333.295
4339.562
4325.917
4344.313
4341.357
4347.673
4347.062
4335.36
4357.738
4334.432
4360.547
4342.103
4332.624
4351.667
4360.767
4338.792
4367.266
4370.698
4385.722
4363.967
4372.334
4370.283
4361.109
4377.868
4369.818
4357.408
4385.576
4373.471
4344.643
4172.632
4026.87
4175.71
5059.783
5411.697
5116.13
4674.229
4474.416
4421.891
4387.896
4374.594
4357.518
4356.871
4373.471
4375.45
4379.114
4357.665
4372.677
4365.067
4356.077
4378.772
4376.329
4362.465
4370.625
4380.128
4373.202
4379.627
4410.445
4404.191
4413.683
4448.19
4445.612
4458.866
4469.468
4455.739
4461.309
4439.884
4414.599
4440.861
4422.514
4399.879
4392.734
4385.894
4405.168
4389.9
4406.671
4404.595
4394.139
4402.2
4403.898
4426.032
4424.688
4421.512
4429.599
4443.707
4444.049
4442.302
4439.981
4446.223
4454.823
4467.954
4477.616
4461.639
4458.756
4477.555
4489.757
4482.123
4476.077
4500.446
4512.453
4474.745
4487.351
4504.757
4509.875
4521.346
4497.648
4501.032
4506.321
4481.158
4500.348
4513.601
4531.057
4521.565
4523.422
4529.029
4536.81
4541.036
4558.394
4555.108
4534.941
4557.074
4562.718
4560.604
4541.524
4564.147
4498.002
4357.982
4175.527
4592.706
5367.454
5327.877
5063.105
4821.969
4659.033
4624.501
4588.491
4586.244
4577.388
4567.042
4588.919
4592.645
4587.123
4599.998
4581.297
4594.037
4611.468
4610.271
4616.891
4624.721
4618.088
4640.344
4643.667
4670.759
4676.916
4684.611
4718.972
4737.954
4740.019
4758.5
4761.749
4763.3
4766.048
4726.606
4718.19
4682.449
4670.637
4631.109
4604.236
4635.592
4623.817
4625.209
4628.202
4630.646
4645.499
4642.506
4654.525
4667.51
4675.89
4675.059
4681.057
4675.328
4675.865
4678.736
4691.097
4684.978
4678.198
4692.209
4681.191
4683.793
4708.797
4709.371
4704.497
4681.741
4692.856
4727.474
4716.358
4707.441
4685.332
4691.818
4693.125
4725.263
4729.917
4716.041
4718.215
4719.473
4716.407
4730.686
4726.777
4721.109
4729.904
4728.011
4734.693
4735.23
4736.781
4727.693
4618.675
4496.647
4368.621
4939.062
5536.106
5462.206
5139.534
4967.877
4821.431
4751.696
4747.775
4740.482
4748.544
4720.047
4738.87
4735.376
4750.45
4750.108
4725.556
4726.215
4764.974
4756.057
4759.147
4754.493
4744.098
4781.305
4783.015
4799.322
4814.933
4849.453
4858.333
4873.638
4870.927
4890.25
4901.525
4898.496
4891.35
4861.667
4820.809
4800.275
4778.129
4758.817
4745.014
4727.156
4737.93
4728.536
4740.287
4757.058
4753.65
4756.692
4759.232
4783.296
4767.355
4763.728
4764.021
4756.545
4773.438
4772.217
4777.115
4775.735
4786.521
4778.313
4779.717
4784.383
4780.328
4768.247
4787.559
4768.992
4797.001
4796.476
4785.898
4794.607
4798.992
4788.61
4815.25
4789.709
4802.449
4801.13
4796.0
4817.437
4811.159
4824.119
4818.426
4813.37
4815.544
4800.654
4673.569
4520.833
4395.69
5235.3
5809.087
5690.614
5245.536
4996.705
4867.641
4841.977
4804.404
4798.101
4790.271
4802.278
4809.888
4795.853
4807.335
4790.454
4793.948
4804.147
4791.346
4794.607
4805.515
4795.841
4797.808
4807.653
4803.304
4811.586
4833.537
4851.333
4880.906
4898.716
4897.934
4894.685
4901.476
4895.699
4897.849
4882.299
4838.02
4816.521
4816.606
4795.987
4793.349
4782.319
4800.532
4811.037
4802.352
4792.921
4800.837
4794.351
4800.617
4797.93
4808.532
4806.333
4816.704
4826.391
4816.35
4816.692
4818.28
4817.229
4818.573
4821.248
4824.473
4815.373
4824.925
4826.549
4821.651
4833.659
4830.336
4821.969
4825.487
4803.695
4795.206
4810.853
4828.345
4830.91
4829.591
4831.289
4827.368
4829.042
4836.065
4832.461
4811.159
4828.565
4826.122
4840.475
4840.731
4817.474
4840.67
4806.969
4666.423
4491.052
4551.468
5520.569
5959.222
5689.148
5184.95
4942.641
4880.588
4840.426
4824.546
4827.233
4811.037
4799.554
4809.387
4811.659
4817.792
4793.471
4818.927
4817.498
4799.627
4803.891
4777.555
4804.123
4809.998
4788.084
4816.558
4820.601
4839.803
4824.534
4864.306
4866.737
4882.213
4872.881
4874.2
4881.138
4863.72
4856.562
4810.536
4799.042
4808.752
4803.292
4810.401
4807.225
4791.615
4788.048
4799.127
4808.508
4803.023
4790.71
4799.371
4805.54
4806.786
4804.404
4817.376
4824.729
4826.122
4817.059
4822.604
4837.714
4852.91
4835.417
4824.729
4847.156
4829.823
4840.389
4845.971
4826.782
4858.479
4845.996
4850.369
4827.6
4839.412
4850.613
4859.2
4855.096
4846.899
4861.044
4856.831
4846.753
4842.832
4824.656
4861.032
4871.427
4850.051
4858.235
4878.842
4862.632
4857.551
4868.361
4860.764
4895.125
4885.316
4877.865
4862.486
4864.135
4875.471
4851.211
4766.256
4634.212
4422.966
5133.427
5904.181
5975.565
5384.396
5072.938
4937.633
4877.144
4879.893
4859.383
4858.284
4855.389
4845.751
4837.555
4867.726
4888.467
4870.047
4871.11
4836.444
4863.463
4848.133
4848.769
4869.839
4851.798
4864.465
4848.268
4880.051
4895.393
4883.447
4885.841
4915.743
4933.223
4950.263
4914.925
4912.91
4917.93
4894.685
4879.343
4864.294
4873.479
4873.162
4866.175
4878.292
4868.544
4864.416
4875.654
4857.515
4867.91
4869.277
4874.225
4878.5
4877.889
4870.621
4881.957
4873.04
4902.698
4907.254
4884.326
4898.923
4902.209
4914.314
4911.114
4901.647
4904.579
4904.713
4917.38
4905.312
4914.51
4912.47
4914.388
4919.726
4916.366
4908.488
4907.608
4927.922
4922.449
4925.894
4920.3
4923.769
4912.494
4931.696
4944.864
4912.738
4923.708
4928.02
4917.221
4927.665
4938.366
4954.587
4928.459
4946.965
4950.361
4952.217
4950.141
4948.724
4937.01
4964.066
4947.478
4959.791
4960.426
4944.791
4960.621
4840.108
4665.165
4565.674
5368.651
5967.296
5940.081
5384.47
5136.285
5016.432
4997.01
4973.337
4941.065
4941.725
4947.844
4961.867
4964.432
4945.756
4958.3
4956.749
4956.847
4966.289
4951.949
4951.423
4956.041
4962.612
4968.439
4958.105
4979.628
4988.117
5007.234
5006.305
5018.96
5036.061
5052.197
5031.053
5035.951
5031.603
5010.532
5015.161
4999.294
4977.527
4964.579
4962.917
4971.297
4972.58
4959.656
4961.037
4964.005
4971.297
4969.282
4977.49
4979.005
4979.139
4982.901
4988.484
4979.677
5000.821
5008.296
5009.066
4998.439
4998.28
5009.628
5017.165
5008.822
5004.449
5005.548
5023.296
5013.854
4995.385
5017.458
5006.061
5016.933
5017.14
5007.161
5016.2
5012.438
5018.203
5018.862
5004.571
5020.622
5003.337
5014.233
5008.174
5015.406
5011.179
4996.619
4991.208
5002.873
5005.121
5023.749
5015.76
5018.227
5023.871
5020.646
5018.655
5026.155
5012.376
5012.156
5020.927
5020.951
5017.152
5017.299
5023.822
5008.761
5012.327
4884.717
4714.025
4667.791
5457.637
5959.613
5778.074
5374.808
5171.965
5062.983
5018.068
5015.894
5003.3
4989.033
5007.319
4997.339
4992.649
5003.411
4994.665
5006.281
4985.821
4981.545
5003.032
5009.567
5019.29
4994.933
5025.129
5019.913
5037.686
5066.0
5070.336
5076.261
5101.191
5094.668
5097.063
5093.044
5104.172
5095.451
5068.028
5060.833
5031.688
5017.323
5008.528
4994.042
4992.173
4999.074
4986.077
4991.794
4998.891
5008.04
5007.466
5024.762
5023.895
5013.964
5031.188
5038.907
5023.443
5034.559
5030.516
5036.855
5029.001
5033.374
5050.011
5027.499
5041.692
5046.261
5031.969
5029.233
5040.117
5054.445
5048.007
5026.484
5036.354
5044.501
5041.277
5056.289
5041.13
5043.977
5034.693
5049.424
5059.233
5050.963
5036.708
5047.348
5041.326
5059.819
5047.543
5069.896
5072.975
5064.925
5053.907
5061.102
5065.096
5063.801
5062.396
5061.017
5064.034
5071.473
5067.625
5042.999
4889.029
4767.551
4829.505
5664.657
5851.375
5655.081
5383.615
5215.402
5123.813
5102.107
5075.125
5070.324
5056.814
5070.642
5060.381
5076.004
5067.063
5073.573
5082.075
5061.371
5090.845
5100.471
5104.441
5108.948
5119.05
5113.284
5135.577
5152.653
5163.574
5191.924
5201.672
5219.702
5234.982
5249.946
5238.574
5247.601
5220.544
5201.904
5157.49
5139.815
5125.328
5080.426
5088.964
5078.215
5082.906
5071.167
5071.778
5093.777
5104.086
5106.041
5105.528
5087.56
5096.257
5115.41
5115.275
5127.93
5109.546
5115.275
5112.234
5119.758
5128.7
5111.085
5128.993
5118.292
5109.669
5116.252
5127.393
5102.267
5131.021
5119.795
5124.217
5121.249
5105.491
5131.851
5117.254
5108.728
5137.006
5152.58
5129.481
5135.137
5154.742
5163.793
5146.875
5142.002
5139.632
5154.852
5156.33
5162.682
5141.012
5146.473
5135.846
5134.746
5007.161
4870.059
4867.213
5671.07
5989.637
5808.574
5496.665
5322.344
5196.371
5170.548
5159.396
5149.294
5154.241
5159.176
5147.621
5163.696
5151.297
5160.715
5154.217
5158.602
5167.739
5167.018
5182.629
5185.28
5187.918
5209.868
5204.799
5218.932
5235.544
5249.885
5295.496
5290.17
5302.935
5316.579
5320.964
5328.158
5313.964
5281.094
5261.135
5226.114
5221.106
5193.097
5180.162
5192.083
5183.508
5179.514
5194.905
5181.835
5195.736
5194.575
5180.247
5208.842
5206.692
5212.202
5217.942
5223.793
5223.39
5226.505
5223.341
5221.192
5228.472
5247.564
5234.702
5236.9
5243.484
5230.28
5235.019
5250.837
5234.689
5243.423
5248.003
5244.815
5229.815
5223.39
5232.784
5248.517
5272.617
5244.363
5250.618
5256.078
5251.069
5266.852
5271.688
5265.63
5262.906
5248.333
5278.541
5273.374
5264.946
5276.746
5246.77
5110.023
4991.647
4883.227
5705.235
6250.317
6138.954
5715.655
5465.528
5338.725
5277.442
5272.25
5271.224
5260.756
5249.873
5262.833
5257.091
5266.448
5242.348
5268.036
5290.304
5269.282
5262.991
5259.474
5275.646
5284.258
5271.566
5292.674
5295.532
5298.745
5322.454
5340.483
5365.512
5374.038
5376.615
5387.902
5376.774
5358.757
5356.827
5333.765
5311.155
5293.626
5286.347
5267.169
5264.005
5274.205
5280.386
5279.311
5278.908
5278.065
5286.383
5288.105
5276.587
5295.227
5289.437
5298.83
5302.104
5310.947
5314.331
5319.901
5313.61
5302.898
5318.716
5325.581
5327.096
5318.655
5317.385
5318.313
5330.516
5334.51
5317.751
5323.26
5324.982
5330.992
5330.125
5322.369
5333.667
5321.354
5325.508
5360.284
5333.374
5320.573
5334.718
5320.072
5331.652
5360.162
5346.31
5355.154
5334.266
5351.293
5352.601
5369.018
5361.664
5354.58
5363.924
5341.119
5358.415
5367.222
5354.262
5300.65
5145.117
4917.917
5397.051
6274.369
6530.42
6054.475
5631.469
5473.615
5393.154
5374.136
5372.792
5354.946
5345.418
5333.667
5338.468
5352.503
5333.24
5353.15
5334.107
5328.781
5353.089
5345.296
5330.943
5331.762
5341.534
5353.358
5337.222
5350.048
5359.734
5369.421
5407.226
5408.899
5402.047
5436.469
5426.196
5406.75
5412.026
5391.566
5369.653
5371.827
5365.243
5356.021
5347.617
5345.052
5354.543
5365.732
5368.175
5365.316
5360.406
5339.47
5362.287
5371.399
5373.537
5373.22
5362.495
5364.095
5385.801
5386.485
5361.31
5392.409
5379.095
5394.914
5394.205
5395.915
5393.545
5397.076
5403.11
5393.594
5399.066
5415.166
5399.213
5422.52
5405.858
5396.819
5422.507
5406.261
5415.972
5411.22
5407.874
5421.505
5418.317
5413.028
5424.792
5425.5
5422.482
5414.335
5421.139
5416.62
5409.339
5413.26
5413.077
5425.598
5423.191
5436.53
5428.627
5425.964
5420.553
5441.404
5439.217
5428.688
5438.46
5429.665
5444.164
5433.452
5430.3
5434.111
5369.372
5214.083
4988.325
5608.688
6405.228
6539.74
6022.313
5690.101
5496.371
5467.348
5455.744
5443.761
5433.855
5421.151
5411.013
5416.143
5424.877
5419.966
5414.799
5407.593
5421.42
5419.111
5420.821
5410.316
5403.012
5407.202
5406.542
5420.064
5422.495
5429.115
5453.203
5453.436
5472.723
5471.526
5472.088
5476.155
5476.754
5469.706
5461.461
5427.601
5412.466
5419.832
5426.208
5428.651
5416.925
5418.61
5415.19
5422.861
5434.771
5440.072
5422.593
5412.002
5421.493
5451.872
5437.043
5448.892
5447.731
5446.375
5469.816
5452.324
5452.312
5449.783
5448.721
5484.193
5475.447
5480.663
5468.484
5477.132
5474.458
5482.813
5484.107
5483.741
5475.654
5479.991
5484.914
5488.114
5489.983
5476.277
5491.314
5487.222
5471.99
5490.765
5477.755
5494.136
5507.133
5497.69
5491.07
5492.707
5496.334
5500.927
5490.349
5477.071
5478.586
5490.044
5501.709
5518.102
5511.762
5513.02
5511.53
5509.93
5511.481
5508.611
5521.852
5491.852
5498.667
5502.369
5523.721
5514.901
5500.695
5491.363
5351.0
5169.999
5217.087
6095.59
6547.508
6339.218
5859.621
5640.984
5544.181
5509.246
5507.059
5484.315
5500.659
5492.218
5497.263
5494.673
5494.661
5485.952
5498.35
5487.21
5478.293
5495.088
5470.781
5489.897
5496.921
5493.806
5492.768
5496.677
5506.412
5508.77
5516.636
5531.233
5538.403
5543.155
5546.844
5551.388
5553.232
5537.866
5517.882
5500.219
5495.528
5497.287
5477.279
5481.958
5479.246
5464.954
5465.711
5482.886
5498.313
5489.335
5482.189
5493.989
5489.494
5499.743
5491.229
5484.486
5502.125
5484.339
5504.445
5517.784
5502.295
5534.128
5519.287
5516.453
5516.501
5507.548
5510.064
5507.511
5500.891
5521.167
5500.072
5502.332
5504.274
5506.522
5522.121
5509.466
5523.134
5496.371
5511.787
5519.531
5505.532
5502.955
5525.357
5527.458
5517.198
5506.216
5505.483
5514.621
5516.832
5509.832
5507.121
5500.011
5493.049
5491.424
5514.474
5500.072
5512.25
5533.773
5521.339
5518.554
5530.622
5521.021
5513.594
5518.077
5515.634
5527.886
5521.864
5508.293
5500.341
5372.609
5221.302
5194.526
5951.856
6398.889
6205.232
5869.393
5672.194
5554.038
5538.122
5520.105
5520.594
5501.086
5496.982
5514.107
5503.089
5513.375
5507.743
5505.593
5513.729
5512.446
5512.898
5527.019
5504.873
5525.675
5521.62
5543.692
5553.134
5544.413
5575.5
5586.665
5600.968
5636.074
5622.027
5629.209
5611.302
5619.792
5608.004
5578.712
5565.569
5543.937
5529.266
5517.21
5498.277
5504.922
5501.954
5503.871
5525.907
5515.194
5517.54
5545.817
5528.265
5539.844
5539.576
5539.808
5558.472
5546.343
5546.221
5554.001
5551.546
5546.086
5533.114
5545.207
5575.439
5558.497
5571.909
5566.852
5546.55
5569.393
5564.409
5559.266
5573.484
5578.419
5579.543
5578.651
5563.957
5580.178
5575.977
5582.89
5573.533
5565.923
5570.199
5569.05
5589.095
5568.647
5595.154
5604.327
5597.731
5605.072
5611.705
5610.997
5613.342
5611.033
5597.988
5610.349
5592.882
5598.464
5537.401
5391.237
5231.623
5602.678
6398.229
6338.119
6083.656
5870.297
5675.04
5637.821
5616.103
5608.077
5599.869
5602.764
5604.083
5625.227
5591.611
5612.182
5594.152
5613.989
5637.247
5616.359
5639.055
5624.299
5636.514
5672.353
5662.837
5676.225
5700.789
5708.595
5726.514
5757.137
5771.331
5771.465
5779.747
5796.066
5778.098
5786.417
5739.132
5705.138
5689.661
5658.489
5639.958
5632.8
5631.726
5615.81
5624.458
5608.493
5643.794
5644.1
5633.656
5657.169
5654.104
5640.911
5644.429
5665.146
5669.751
5683.859
5638.236
5661.701
5655.056
5685.35
5668.749
5674.393
5669.091
5650.146
5664.987
5651.587
5678.204
5684.861
5652.528
5680.916
5688.538
5686.168
5690.382
5681.05
5697.943
5692.288
5688.318
5698.139
5694.12
5705.418
5686.595
5686.253
5703.037
5697.088
5687.023
5723.973
5687.707
5525.296
5412.552
5434.111
6207.528
6538.506
6362.598
6055.61
5866.339
5767.874
5735.846
5716.058
5695.512
5685.594
5707.08
5705.284
5705.028
5707.715
5703.879
5723.057
5725.952
5722.74
5719.637
5729.604
5736.494
5737.3
5747.402
5772.198
5795.138
5796.103
5820.484
5829.731
5867.609
5868.306
5893.762
5882.524
5877.98
5880.447
5859.267
5808.794
5771.905
5751.934
5750.028
5734.771
5739.596
5747.841
5731.718
5741.074
5743.762
5740.378
5761.864
5758.09
5755.134
5763.22
5752.214
5767.911
5780.59
5783.497
5777.292
5786.27
5785.647
5757.174
5777.487
5792.096
5782.3
5754.352
5763.745
5768.13
5780.443
5798.363
5801.05
5816.331
5810.492
5800.292
5793.44
5796.115
5812.373
5802.052
5797.691
5794.747
5807.548
5813.228
5810.761
5814.193
5797.874
5624.995
5514.486
5462.743
6296.258
6732.077
6540.106
6187.862
5975.041
5877.381
5846.197
5831.001
5811.812
5811.958
5818.053
5816.147
5812.923
5822.047
5826.885
5828.802
5815.989
5827.496
5834.36
5841.274
5852.17
5857.349
5857.214
5865.325
5886.359
5877.113
5921.82
5919.486
5932.447
5975.041
5971.107
5969.617
5983.347
5944.601
5941.327
5905.537
5889.804
5872.825
5841.787
5846.221
5846.246
5861.648
5849.653
5854.723
5867.952
5850.044
5853.855
5855.565
5857.385
5869.967
5879.47
5879.824
5888.668
5876.795
5883.342
5892.724
5889.877
5902.508
5900.321
5895.325
5902.703
5891.197
5877.907
5888.68
5894.482
5908.933
5918.448
5925.374
5912.988
5913.929
5918.204
5919.829
5931.311
5913.464
5905.562
5920.183
5913.624
5924.629
5947.129
5930.37
5910.936
5786.917
5652.112
5483.937
6161.808
6897.212
6891.361
6423.673
6152.219
5988.037
5942.634
5930.382
5933.534
5932.972
5917.239
5923.859
5924.678
5920.33
5929.991
5923.078
5921.478
5931.25
5912.939
5932.08
5936.49
5936.624
5944.637
5949.658
5955.912
5960.675
5974.063
5995.012
6008.46
6028.53
6035.688
6035.37
6022.056
6030.093
6022.361
5997.113
5969.507
5945.187
5947.153
5918.399
5938.286
5950.94
5949.633
5947.043
5925.802
5925.741
5937.235
5939.813
5941.083
5920.537
5936.038
5944.808
5935.195
5953.798
5954.36
5954.641
5962.276
5948.754
5958.685
5952.699
5953.75
5960.175
5961.726
5966.942
5962.313
5961.323
5966.343
5968.97
5970.704
5958.293
5964.572
5987.121
5973.135
5976.567
5967.198
5970.35
5976.592
5964.804
5951.221
5956.229
5961.005
5990.993
5979.877
5973.257
5999.58
5996.832
5992.019
5980.94
5983.261
5999.959
5996.319
5995.793
5991.103
5960.431
5995.293
5999.275
5889.816
5710.818
5521.253
6336.714
7072.839
7071.056
6547.765
6233.681
6072.052
6018.624
5988.025
5993.07
5967.65
5977.117
5986.975
5986.131
5974.943
5949.352
5981.771
5999.788
5985.619
5982.455
5988.159
5987.475
5987.512
5984.837
5986.339
5967.052
5991.213
6020.211
6018.159
6052.093
6048.831
6058.958
6069.206
6065.089
6063.917
6046.291
6014.666
5997.931
5995.244
5993.607
5997.223
5983.933
5973.978
5974.405
5966.686
5942.06
5959.185
5987.695
5994.743
5996.502
5996.404
5991.482
5976.543
5996.453
6003.11
6014.141
6011.319
6000.436
6025.574
6021.323
6028.017
6059.715
6074.666
6097.496
6097.3
6086.576
6114.279
6095.053
6099.877
6141.873
6141.311
6159.255
6225.436
6265.867
6340.538
6456.275
6591.226
6720.167
6914.227
7042.045
7107.823
7089.732
7098.955
7097.208
7143.063
7236.532
7265.543
7121.406
6958.824
6777.211
6657.676
6565.44
6514.638
6439.601
6345.118
6249.878
6287.879
6299.446
6251.38
6213.416
6183.685
6129.389
6185.834
6134.006
6114.694
6143.803
6118.212
6055.5
5887.092
5704.1
5925.582
6839.154
7128.173
6738.759
6327.639
6115.672
6014.678
6036.25
6063.758
6031.217
5968.75
5947.801
5962.203
6005.932
5988.33
5947.043
5961.311
6001.791
5973.0
5882.927
5946.836
5955.936
5936.343
5942.06
5935.207
5932.214
5981.734
5987.036
5997.467
5963.961
5982.577
5992.984
5966.453
5977.41
5958.587
5887.031
5954.104
5921.404
5933.595
5868.416
5798.179
5886.201
5887.41
5823.013
5849.739
5882.634
5836.95
5776.205
5834.678
5789.934
5810.37
5825.419
5815.109
5817.528
5820.729
5816.673
5830.867
5810.785
5760.105
5797.361
5837.169
5746.84
5769.096
5805.973
5694.376
5787.87
5837.817
5801.539
5770.158
5757.247
5732.292
5753.924
5728.651
5732.902
5762.707
5768.24
5756.551
5745.74
5751.995
5695.745
5686.424
5756.612
5741.025
5689.063
5690.675
5754.022
5730.875
5733.782
5672.292
5694.267
5649.987
5702.585
5696.734
5659.6
5696.587
5658.049
5686.131
5643.733
5477.218
5402.609
5368.102
5967.663
6493.946
6385.831
5985.386
5812.544
5643.33
5587.019
5630.003
5606.025
5632.324
5581.986
5576.416
5571.677
5582.377
5617.703
5582.878
5559.242
5566.045
5579.971
5566.424
5566.9
5566.167
5591.501
5592.687
5622.125
5612.915
5591.123
5664.755
5633.9
5686.852
5688.94
5665.854
5697.223
5666.367
5626.62
5636.661
5569.368
5581.546
5510.675
5531.672
5550.093
5481.958
5539.38
5562.906
5535.044
5539.063
5504.958
5514.975
5523.757
5531.794
5557.996
5535.96
5530.158
5482.8
5522.047
5563.639
5540.785
5558.484
5552.621
5536.119
5569.172
5514.999
5555.932
5569.246
5542.263
5542.141
5552.976
5560.524
5515.903
5558.118
5576.013
5541.872
5524.111
5547.748
5555.211
5517.503
5535.325
5545.146
5581.363
5561.111
5567.511
5572.08
5525.614
5527.238
5563.822
5534.592
5543.008
5518.065
5552.365
5499.12
5368.908
5284.478
5432.181
